"id","C_[0]","Cd_[0]","type","v:0","v:1","v:2","Points:0","Points:1","Points:2"
1,0,0,1,0,0,0,0,0,0
2,0,0,1,0,0,0,0.0625,0,0
3,0,0,1,0,0,0,0.125,0,0
4,0,0,1,0,0,0,0.1875,0,0
5,0,0,1,0,0,0,0.25,0,0
6,0,0,1,0,0,0,0.3125,0,0
7,0,0,1,0,0,0,0.375,0,0
8,0,0,1,0,0,0,0.4375,0,0
9,0,0,1,0,0,0,0.5,0,0
10,0,0,1,0,0,0,0.5625,0,0
11,0,0,1,0,0,0,0.625,0,0
12,0,0,1,0,0,0,0.6875,0,0
13,0,0,1,0,0,0,0.75,0,0
14,0,0,1,0,0,0,0.8125,0,0
15,0,0,1,0,0,0,0.875,0,0
16,0,0,1,0,0,0,0.9375,0,0
17,0,0,1,0,0,0,1,0,0
18,0,0,1,0,0,0,0,0.0625,0
19,1238.97,1734,1,0,0,0,0.0625,0.0625,0
20,2428.3,2023,1,0,0,0,0.125,0.0625,0
21,3520.92,3179,1,0,0,0,0.1875,0.0625,0
22,4474.66,5780,1,0,0,0,0.25,0.0625,0
23,5253.87,6647,1,0,0,0,0.3125,0.0625,0
24,5830.49,7803,1,0,0,0,0.375,0.0625,0
25,6184.45,6647,1,0,0,0,0.4375,0.0625,0
26,6303.76,5491,1,0,0,0,0.5,0.0625,0
27,6184.45,6647,1,0,0,0,0.5625,0.0625,0
28,5830.49,6358,1,0,0,0,0.625,0.0625,0
29,5253.87,4624,1,0,0,0,0.6875,0.0625,0
30,4474.66,5202,1,0,0,0,0.75,0.0625,0
31,3520.92,2312,1,0,0,0,0.8125,0.0625,0
32,2428.3,2890,1,0,0,0,0.875,0.0625,0
33,1238.97,1734,1,0,0,0,0.9375,0.0625,0
34,0,0,1,0,0,0,1,0.0625,0
35,0,0,1,0,0,0,0,0.125,0
36,2528.15,2023,1,0,0,0,0.0625,0.125,0
37,4954.31,4913,1,0,0,0,0.125,0.125,0
38,7182.08,9826,1,0,0,0,0.1875,0.125,0
39,9125.4,10115,1,0,0,0,0.25,0.125,0
40,10712,10115,1,0,0,0,0.3125,0.125,0
41,11885.3,9826,1,0,0,0,0.375,0.125,0
42,12605.2,10693,1,0,0,0,0.4375,0.125,0
43,12847.8,12427,1,0,0,0,0.5,0.125,0
44,12605.2,10693,1,0,0,0,0.5625,0.125,0
45,11885.3,10404,1,0,0,0,0.625,0.125,0
46,10712,12138,1,0,0,0,0.6875,0.125,0
47,9125.4,7803,1,0,0,0,0.75,0.125,0
48,7182.08,5780,1,0,0,0,0.8125,0.125,0
49,4954.31,4335,1,0,0,0,0.875,0.125,0
50,2528.15,2312,1,0,0,0,0.9375,0.125,0
51,0,0,1,0,0,0,1,0.125,0
52,0,0,1,0,0,0,0,0.1875,0
53,3920.48,2023,1,0,0,0,0.0625,0.1875,0
54,7680.89,8959,1,0,0,0,0.125,0.1875,0
55,11130.6,10693,1,0,0,0,0.1875,0.1875,0
56,14136.1,12427,1,0,0,0,0.25,0.1875,0
57,16586.8,19363,1,0,0,0,0.3125,0.1875,0
58,18396.9,18207,1,0,0,0,0.375,0.1875,0
59,19506.4,22253,1,0,0,0,0.4375,0.1875,0
60,19880.2,18785,1,0,0,0,0.5,0.1875,0
61,19506.4,18496,1,0,0,0,0.5625,0.1875,0
62,18396.9,14739,1,0,0,0,0.625,0.1875,0
63,16586.8,19941,1,0,0,0,0.6875,0.1875,0
64,14136.1,14739,1,0,0,0,0.75,0.1875,0
65,11130.6,12716,1,0,0,0,0.8125,0.1875,0
66,7680.89,11849,1,0,0,0,0.875,0.1875,0
67,3920.48,4624,1,0,0,0,0.9375,0.1875,0
68,0,0,1,0,0,0,1,0.1875,0
69,0,0,1,0,0,0,0,0.25,0
70,5474.84,6358,1,0,0,0,0.0625,0.25,0
71,10721.8,13005,1,0,0,0,0.125,0.25,0
72,15527.9,17918,1,0,0,0,0.1875,0.25,0
73,19707,19363,1,0,0,0,0.25,0.25,0
74,23107.3,27455,1,0,0,0,0.3125,0.25,0
75,25614,24276,1,0,0,0,0.375,0.25,0
76,27148.3,31790,1,0,0,0,0.4375,0.25,0
77,27664.7,23409,1,0,0,0,0.5,0.25,0
78,27148.3,27744,1,0,0,0,0.5625,0.25,0
79,25614,23987,1,0,0,0,0.625,0.25,0
80,23107.3,25143,1,0,0,0,0.6875,0.25,0
81,19707,19074,1,0,0,0,0.75,0.25,0
82,15527.9,13583,1,0,0,0,0.8125,0.25,0
83,10721.8,11849,1,0,0,0,0.875,0.25,0
84,5474.84,5780,1,0,0,0,0.9375,0.25,0
85,0,0,1,0,0,0,1,0.25,0
86,0,0,1,0,0,0,0,0.3125,0
87,7260.23,7225,1,0,0,0,0.0625,0.3125,0
88,14209.3,14161,1,0,0,0,0.125,0.3125,0
89,20559.5,26010,1,0,0,0,0.1875,0.3125,0
90,26064.4,31790,1,0,0,0,0.25,0.3125,0
91,30528.8,29189,1,0,0,0,0.3125,0.3125,0
92,33810.3,32079,1,0,0,0,0.375,0.3125,0
93,35814.3,35258,1,0,0,0,0.4375,0.3125,0
94,36488,32079,1,0,0,0,0.5,0.3125,0
95,35814.3,37859,1,0,0,0,0.5625,0.3125,0
96,33810.3,32946,1,0,0,0,0.625,0.3125,0
97,30528.8,25721,1,0,0,0,0.6875,0.3125,0
98,26064.4,24276,1,0,0,0,0.75,0.3125,0
99,20559.5,22542,1,0,0,0,0.8125,0.3125,0
100,14209.3,14450,1,0,0,0,0.875,0.3125,0
101,7260.23,10693,1,0,0,0,0.9375,0.3125,0
102,0,0,1,0,0,0,1,0.3125,0
103,0,0,1,0,0,0,0,0.375,0
104,9361.75,10115,1,0,0,0,0.0625,0.375,0
105,18304.6,15317,1,0,0,0,0.125,0.375,0
106,26447.1,24854,1,0,0,0,0.1875,0.375,0
107,33473.1,30345,1,0,0,0,0.25,0.375,0
108,39143.3,37570,1,0,0,0,0.3125,0.375,0
109,43292.4,36125,1,0,0,0,0.375,0.375,0
110,45817.9,46818,1,0,0,0,0.4375,0.375,0
111,46665.4,44795,1,0,0,0,0.5,0.375,0
112,45817.9,48263,1,0,0,0,0.5625,0.375,0
113,43292.4,39882,1,0,0,0,0.625,0.375,0
114,39143.3,39304,1,0,0,0,0.6875,0.375,0
115,33473.1,28033,1,0,0,0,0.75,0.375,0
116,26447.1,29767,1,0,0,0,0.8125,0.375,0
117,18304.6,16762,1,0,0,0,0.875,0.375,0
118,9361.75,11271,1,0,0,0,0.9375,0.375,0
119,0,0,1,0,0,0,1,0.375,0
120,0,0,1,0,0,0,0,0.4375,0
121,11890.3,15895,1,0,0,0,0.0625,0.4375,0
122,23214,21386,1,0,0,0,0.125,0.4375,0
123,33467.6,34680,1,0,0,0,0.1875,0.4375,0
124,42253.3,38437,1,0,0,0,0.25,0.4375,0
125,49291.4,45951,1,0,0,0,0.3125,0.4375,0
126,54407.9,63580,1,0,0,0,0.375,0.4375,0
127,57506.9,56644,1,0,0,0,0.4375,0.4375,0
128,58544.1,60690,1,0,0,0,0.5,0.4375,0
129,57506.9,56644,1,0,0,0,0.5625,0.4375,0
130,54407.9,48552,1,0,0,0,0.625,0.4375,0
131,49291.4,51153,1,0,0,0,0.6875,0.4375,0
132,42253.3,45951,1,0,0,0,0.75,0.4375,0
133,33467.6,29478,1,0,0,0,0.8125,0.4375,0
134,23214,21386,1,0,0,0,0.875,0.4375,0
135,11890.3,8959,1,0,0,0,0.9375,0.4375,0
136,0,0,1,0,0,0,1,0.4375,0
137,0,0,1,0,0,0,0,0.5,0
138,14999.3,14450,1,0,0,0,0.0625,0.5,0
139,29216.5,29189,1,0,0,0,0.125,0.5,0
140,41981.3,40460,1,0,0,0,0.1875,0.5,0
141,52802.8,54043,1,0,0,0,0.25,0.5,0
142,61377.4,68782,1,0,0,0,0.3125,0.5,0
143,67550.89999999999,68782,1,0,0,0,0.375,0.5,0
144,71263.7,74562,1,0,0,0,0.4375,0.5,0
145,72501.7,73984,1,0,0,0,0.5,0.5,0
146,71263.7,72828,1,0,0,0,0.5625,0.5,0
147,67550.89999999999,68204,1,0,0,0,0.625,0.5,0
148,61377.4,57511,1,0,0,0,0.6875,0.5,0
149,52802.8,55777,1,0,0,0,0.75,0.5,0
150,41981.3,41327,1,0,0,0,0.8125,0.5,0
151,29216.5,28900,1,0,0,0,0.875,0.5,0
152,14999.3,12138,1,0,0,0,0.9375,0.5,0
153,0,0,1,0,0,0,1,0.5,0
154,0,0,1,0,0,0,0,0.5625,0
155,18915.2,16184,1,0,0,0,0.0625,0.5625,0
156,36710.7,34391,1,0,0,0,0.125,0.5625,0
157,52478.2,52598,1,0,0,0,0.1875,0.5625,0
158,65630.39999999999,62713,1,0,0,0,0.25,0.5625,0
159,75883.39999999999,83521,1,0,0,0,0.3125,0.5625,0
160,83162.89999999999,82365,1,0,0,0,0.375,0.5625,0
161,87497.2,93347,1,0,0,0,0.4375,0.5625,0
162,88934.89999999999,99994,1,0,0,0,0.5,0.5625,0
163,87497.2,73984,1,0,0,0,0.5625,0.5625,0
164,83162.89999999999,78897,1,0,0,0,0.625,0.5625,0
165,75883.39999999999,74851,1,0,0,0,0.6875,0.5625,0
166,65630.39999999999,65603,1,0,0,0,0.75,0.5625,0
167,52478.2,50575,1,0,0,0,0.8125,0.5625,0
168,36710.7,42194,1,0,0,0,0.875,0.5625,0
169,18915.2,18496,1,0,0,0,0.9375,0.5625,0
170,0,0,1,0,0,0,1,0.5625,0
171,0,0,1,0,0,0,0,0.625,0
172,23998.9,28322,1,0,0,0,0.0625,0.625,0
173,46304,47685,1,0,0,0,0.125,0.625,0
174,65655.60000000001,60401,1,0,0,0,0.1875,0.625,0
175,81400.10000000001,82365,1,0,0,0,0.25,0.625,0
176,93382.39999999999,90457,1,0,0,0,0.3125,0.625,0
177,101723,99994,1,0,0,0,0.375,0.625,0
178,106620,108375,1,0,0,0,0.4375,0.625,0
179,108234,111554,1,0,0,0,0.5,0.625,0
180,106620,103751,1,0,0,0,0.5625,0.625,0
181,101723,104329,1,0,0,0,0.625,0.625,0
182,93382.39999999999,90746,1,0,0,0,0.6875,0.625,0
183,81400.10000000001,79475,1,0,0,0,0.75,0.625,0
184,65655.60000000001,64447,1,0,0,0,0.8125,0.625,0
185,46304,47974,1,0,0,0,0.875,0.625,0
186,23998.9,23120,1,0,0,0,0.9375,0.625,0
187,0,0,1,0,0,0,1,0.625,0
188,0,0,1,0,0,0,0,0.6875,0
189,30878.6,30056,1,0,0,0,0.0625,0.6875,0
190,58987.6,59245,1,0,0,0,0.125,0.6875,0
191,82545.8,78319,1,0,0,0,0.1875,0.6875,0
192,100986,105485,1,0,0,0,0.25,0.6875,0
193,114536,124848,1,0,0,0,0.3125,0.6875,0
194,123714,118201,1,0,0,0,0.375,0.6875,0
195,129006,121958,1,0,0,0,0.4375,0.6875,0
196,130734,143922,1,0,0,0,0.5,0.6875,0
197,129006,127160,1,0,0,0,0.5625,0.6875,0
198,123714,117623,1,0,0,0,0.625,0.6875,0
199,114536,128027,1,0,0,0,0.6875,0.6875,0
200,100986,94214,1,0,0,0,0.75,0.6875,0
201,82545.8,86989,1,0,0,0,0.8125,0.6875,0
202,58987.6,62713,1,0,0,0,0.875,0.6875,0
203,30878.6,34969,1,0,0,0,0.9375,0.6875,0
204,0,0,1,0,0,0,1,0.6875,0
205,0,0,1,0,0,0,0,0.75,0
206,40771.7,43639,1,0,0,0,0.0625,0.75,0
207,76499.3,82654,1,0,0,0,0.125,0.75,0
208,104716,103462,1,0,0,0,0.1875,0.75,0
209,125508,135830,1,0,0,0,0.25,0.75,0
210,140049,139587,1,0,0,0,0.3125,0.75,0
211,149554,151436,1,0,0,0,0.375,0.75,0
212,154913,158661,1,0,0,0,0.4375,0.75,0
213,156644,159817,1,0,0,0,0.5,0.75,0
214,154913,167331,1,0,0,0,0.5625,0.75,0
215,149554,140165,1,0,0,0,0.625,0.75,0
216,140049,131495,1,0,0,0,0.6875,0.75,0
217,125508,122247,1,0,0,0,0.75,0.75,0
218,104716,91324,1,0,0,0,0.8125,0.75,0
219,76499.3,82365,1,0,0,0,0.875,0.75,0
220,40771.7,38726,1,0,0,0,0.9375,0.75,0
221,0,0,1,0,0,0,1,0.75,0
222,0,0,1,0,0,0,0,0.8125,0
223,56395.4,61846,1,0,0,0,0.0625,0.8125,0
224,102098,103173,1,0,0,0,0.125,0.8125,0
225,134497,137853,1,0,0,0,0.1875,0.8125,0
226,156258,166753,1,0,0,0,0.25,0.8125,0
227,170521,177446,1,0,0,0,0.3125,0.8125,0
228,179461,183515,1,0,0,0,0.375,0.8125,0
229,184378,179469,1,0,0,0,0.4375,0.8125,0
230,185948,195653,1,0,0,0,0.5,0.8125,0
231,184378,187561,1,0,0,0,0.5625,0.8125,0
232,179461,185538,1,0,0,0,0.625,0.8125,0
233,170521,175423,1,0,0,0,0.6875,0.8125,0
234,156258,163574,1,0,0,0,0.75,0.8125,0
235,134497,127449,1,0,0,0,0.8125,0.8125,0
236,102098,102017,1,0,0,0,0.875,0.8125,0
237,56395.4,63869,1,0,0,0,0.9375,0.8125,0
238,0,0,1,0,0,0,1,0.8125,0
239,0,0,1,0,0,0,0,0.875,0
240,85136.5,82365,1,0,0,0,0.0625,0.875,0
241,142017,154326,1,0,0,0,0.125,0.875,0
242,174809,166464,1,0,0,0,0.1875,0.875,0
243,194271,190451,1,0,0,0,0.25,0.875,0
244,206139,188428,1,0,0,0,0.3125,0.875,0
245,213270,212993,1,0,0,0,0.375,0.875,0
246,217100,222241,1,0,0,0,0.4375,0.875,0
247,218310,219062,1,0,0,0,0.5,0.875,0
248,217100,224264,1,0,0,0,0.5625,0.875,0
249,213270,197387,1,0,0,0,0.625,0.875,0
250,206139,204323,1,0,0,0,0.6875,0.875,0
251,194271,187272,1,0,0,0,0.75,0.875,0
252,174809,178602,1,0,0,0,0.8125,0.875,0
253,142017,134385,1,0,0,0,0.875,0.875,0
254,85136.5,88145,1,0,0,0,0.9375,0.875,0
255,0,0,1,0,0,0,1,0.875,0
256,0,0,1,0,0,0,0,0.9375,0
257,153722,149991,1,0,0,0,0.0625,0.9375,0
258,204678,210681,1,0,0,0,0.125,0.9375,0
259,227372,224553,1,0,0,0,0.1875,0.9375,0
260,239351,222530,1,0,0,0,0.25,0.9375,0
261,246234,255765,1,0,0,0,0.3125,0.9375,0
262,250239,252875,1,0,0,0,0.375,0.9375,0
263,252353,256632,1,0,0,0,0.4375,0.9375,0
264,253016,245361,1,0,0,0,0.5,0.9375,0
265,252353,255476,1,0,0,0,0.5625,0.9375,0
266,250239,252875,1,0,0,0,0.625,0.9375,0
267,246234,244783,1,0,0,0,0.6875,0.9375,0
268,239351,248251,1,0,0,0,0.75,0.9375,0
269,227372,222241,1,0,0,0,0.8125,0.9375,0
270,204678,204034,1,0,0,0,0.875,0.9375,0
271,153722,148835,1,0,0,0,0.9375,0.9375,0
272,0,0,1,0,0,0,1,0.9375,0
273,289000,289000,1,0,0,0,0,1,0
274,289000,289000,1,0,0,0,0.0625,1,0
275,289000,289000,1,0,0,0,0.125,1,0
276,289000,289000,1,0,0,0,0.1875,1,0
277,289000,289000,1,0,0,0,0.25,1,0
278,289000,289000,1,0,0,0,0.3125,1,0
279,289000,289000,1,0,0,0,0.375,1,0
280,289000,289000,1,0,0,0,0.4375,1,0
281,289000,289000,1,0,0,0,0.5,1,0
282,289000,289000,1,0,0,0,0.5625,1,0
283,289000,289000,1,0,0,0,0.625,1,0
284,289000,289000,1,0,0,0,0.6875,1,0
285,289000,289000,1,0,0,0,0.75,1,0
286,289000,289000,1,0,0,0,0.8125,1,0
287,289000,289000,1,0,0,0,0.875,1,0
288,289000,289000,1,0,0,0,0.9375,1,0
289,289000,289000,1,0,0,0,1,1,0
