"id","C_[0]","Cd_[0]","type","v:0","v:1","v:2","Points:0","Points:1","Points:2"
1,0,0,1,0,0,0,0,0,0
2,0,0,1,0,0,0,0.0625,0,0
3,0,0,1,0,0,0,0.125,0,0
4,0,0,1,0,0,0,0.1875,0,0
5,0,0,1,0,0,0,0.25,0,0
6,0,0,1,0,0,0,0.3125,0,0
7,0,0,1,0,0,0,0.375,0,0
8,0,0,1,0,0,0,0.4375,0,0
9,0,0,1,0,0,0,0.5,0,0
10,0,0,1,0,0,0,0.5625,0,0
11,0,0,1,0,0,0,0.625,0,0
12,0,0,1,0,0,0,0.6875,0,0
13,0,0,1,0,0,0,0.75,0,0
14,0,0,1,0,0,0,0.8125,0,0
15,0,0,1,0,0,0,0.875,0,0
16,0,0,1,0,0,0,0.9375,0,0
17,0,0,1,0,0,0,1,0,0
18,0,0,1,0,0,0,0,0.0625,0
19,1238.98,867,1,0,0,0,0.0625,0.0625,0
20,2428.3,2023,1,0,0,0,0.125,0.0625,0
21,3520.92,3757,1,0,0,0,0.1875,0.0625,0
22,4474.66,4913,1,0,0,0,0.25,0.0625,0
23,5253.88,3468,1,0,0,0,0.3125,0.0625,0
24,5830.5,5491,1,0,0,0,0.375,0.0625,0
25,6184.46,6069,1,0,0,0,0.4375,0.0625,0
26,6303.77,8670,1,0,0,0,0.5,0.0625,0
27,6184.46,5491,1,0,0,0,0.5625,0.0625,0
28,5830.5,5780,1,0,0,0,0.625,0.0625,0
29,5253.88,6069,1,0,0,0,0.6875,0.0625,0
30,4474.66,3757,1,0,0,0,0.75,0.0625,0
31,3520.92,3468,1,0,0,0,0.8125,0.0625,0
32,2428.3,1734,1,0,0,0,0.875,0.0625,0
33,1238.98,2601,1,0,0,0,0.9375,0.0625,0
34,0,0,1,0,0,0,1,0.0625,0
35,0,0,1,0,0,0,0,0.125,0
36,2528.15,2312,1,0,0,0,0.0625,0.125,0
37,4954.32,7803,1,0,0,0,0.125,0.125,0
38,7182.09,4913,1,0,0,0,0.1875,0.125,0
39,9125.41,9537,1,0,0,0,0.25,0.125,0
40,10712,12427,1,0,0,0,0.3125,0.125,0
41,11885.3,14450,1,0,0,0,0.375,0.125,0
42,12605.2,12138,1,0,0,0,0.4375,0.125,0
43,12847.8,13872,1,0,0,0,0.5,0.125,0
44,12605.2,11849,1,0,0,0,0.5625,0.125,0
45,11885.3,13872,1,0,0,0,0.625,0.125,0
46,10712,12427,1,0,0,0,0.6875,0.125,0
47,9125.41,9248,1,0,0,0,0.75,0.125,0
48,7182.09,6936,1,0,0,0,0.8125,0.125,0
49,4954.32,4913,1,0,0,0,0.875,0.125,0
50,2528.15,2890,1,0,0,0,0.9375,0.125,0
51,0,0,1,0,0,0,1,0.125,0
52,0,0,1,0,0,0,0,0.1875,0
53,3920.48,5202,1,0,0,0,0.0625,0.1875,0
54,7680.9,9826,1,0,0,0,0.125,0.1875,0
55,11130.6,8959,1,0,0,0,0.1875,0.1875,0
56,14136.1,9826,1,0,0,0,0.25,0.1875,0
57,16586.8,18207,1,0,0,0,0.3125,0.1875,0
58,18396.9,20519,1,0,0,0,0.375,0.1875,0
59,19506.5,23987,1,0,0,0,0.4375,0.1875,0
60,19880.2,19074,1,0,0,0,0.5,0.1875,0
61,19506.5,20519,1,0,0,0,0.5625,0.1875,0
62,18396.9,16184,1,0,0,0,0.625,0.1875,0
63,16586.8,17051,1,0,0,0,0.6875,0.1875,0
64,14136.1,15606,1,0,0,0,0.75,0.1875,0
65,11130.6,8670,1,0,0,0,0.8125,0.1875,0
66,7680.9,5202,1,0,0,0,0.875,0.1875,0
67,3920.48,2890,1,0,0,0,0.9375,0.1875,0
68,0,0,1,0,0,0,1,0.1875,0
69,0,0,1,0,0,0,0,0.25,0
70,5474.85,6358,1,0,0,0,0.0625,0.25,0
71,10721.8,12138,1,0,0,0,0.125,0.25,0
72,15527.9,14739,1,0,0,0,0.1875,0.25,0
73,19707,16184,1,0,0,0,0.25,0.25,0
74,23107.3,22831,1,0,0,0,0.3125,0.25,0
75,25614,24565,1,0,0,0,0.375,0.25,0
76,27148.4,27166,1,0,0,0,0.4375,0.25,0
77,27664.8,28611,1,0,0,0,0.5,0.25,0
78,27148.4,24276,1,0,0,0,0.5625,0.25,0
79,25614,23409,1,0,0,0,0.625,0.25,0
80,23107.3,20808,1,0,0,0,0.6875,0.25,0
81,19707,19363,1,0,0,0,0.75,0.25,0
82,15527.9,14739,1,0,0,0,0.8125,0.25,0
83,10721.8,10115,1,0,0,0,0.875,0.25,0
84,5474.85,4046,1,0,0,0,0.9375,0.25,0
85,0,0,1,0,0,0,1,0.25,0
86,0,0,1,0,0,0,0,0.3125,0
87,7260.24,6936,1,0,0,0,0.0625,0.3125,0
88,14209.3,17629,1,0,0,0,0.125,0.3125,0
89,20559.5,19941,1,0,0,0,0.1875,0.3125,0
90,26064.4,28611,1,0,0,0,0.25,0.3125,0
91,30528.9,36703,1,0,0,0,0.3125,0.3125,0
92,33810.4,35258,1,0,0,0,0.375,0.3125,0
93,35814.4,31501,1,0,0,0,0.4375,0.3125,0
94,36488.1,37281,1,0,0,0,0.5,0.3125,0
95,35814.4,37570,1,0,0,0,0.5625,0.3125,0
96,33810.4,31212,1,0,0,0,0.625,0.3125,0
97,30528.9,30056,1,0,0,0,0.6875,0.3125,0
98,26064.4,27166,1,0,0,0,0.75,0.3125,0
99,20559.5,21675,1,0,0,0,0.8125,0.3125,0
100,14209.3,18207,1,0,0,0,0.875,0.3125,0
101,7260.24,7225,1,0,0,0,0.9375,0.3125,0
102,0,0,1,0,0,0,1,0.3125,0
103,0,0,1,0,0,0,0,0.375,0
104,9361.76,9248,1,0,0,0,0.0625,0.375,0
105,18304.6,14739,1,0,0,0,0.125,0.375,0
106,26447.1,28033,1,0,0,0,0.1875,0.375,0
107,33473.2,38437,1,0,0,0,0.25,0.375,0
108,39143.3,35547,1,0,0,0,0.3125,0.375,0
109,43292.5,42194,1,0,0,0,0.375,0.375,0
110,45818,42483,1,0,0,0,0.4375,0.375,0
111,46665.4,46818,1,0,0,0,0.5,0.375,0
112,45818,49708,1,0,0,0,0.5625,0.375,0
113,43292.5,41038,1,0,0,0,0.625,0.375,0
114,39143.3,36125,1,0,0,0,0.6875,0.375,0
115,33473.2,35836,1,0,0,0,0.75,0.375,0
116,26447.1,26299,1,0,0,0,0.8125,0.375,0
117,18304.6,19074,1,0,0,0,0.875,0.375,0
118,9361.76,10693,1,0,0,0,0.9375,0.375,0
119,0,0,1,0,0,0,1,0.375,0
120,0,0,1,0,0,0,0,0.4375,0
121,11890.3,8959,1,0,0,0,0.0625,0.4375,0
122,23214,25143,1,0,0,0,0.125,0.4375,0
123,33467.6,31501,1,0,0,0,0.1875,0.4375,0
124,42253.3,42483,1,0,0,0,0.25,0.4375,0
125,49291.5,48841,1,0,0,0,0.3125,0.4375,0
126,54408,58089,1,0,0,0,0.375,0.4375,0
127,57507,58956,1,0,0,0,0.4375,0.4375,0
128,58544.2,56355,1,0,0,0,0.5,0.4375,0
129,57507,50286,1,0,0,0,0.5625,0.4375,0
130,54408,58667,1,0,0,0,0.625,0.4375,0
131,49291.5,46529,1,0,0,0,0.6875,0.4375,0
132,42253.3,42772,1,0,0,0,0.75,0.4375,0
133,33467.6,32368,1,0,0,0,0.8125,0.4375,0
134,23214,19363,1,0,0,0,0.875,0.4375,0
135,11890.3,13005,1,0,0,0,0.9375,0.4375,0
136,0,0,1,0,0,0,1,0.4375,0
137,0,0,1,0,0,0,0,0.5,0
138,14999.3,21097,1,0,0,0,0.0625,0.5,0
139,29216.5,32657,1,0,0,0,0.125,0.5,0
140,41981.3,38437,1,0,0,0,0.1875,0.5,0
141,52802.8,57511,1,0,0,0,0.25,0.5,0
142,61377.4,63869,1,0,0,0,0.3125,0.5,0
143,67550.89999999999,67337,1,0,0,0,0.375,0.5,0
144,71263.8,79475,1,0,0,0,0.4375,0.5,0
145,72501.8,72828,1,0,0,0,0.5,0.5,0
146,71263.8,74273,1,0,0,0,0.5625,0.5,0
147,67550.89999999999,65025,1,0,0,0,0.625,0.5,0
148,61377.4,58956,1,0,0,0,0.6875,0.5,0
149,52802.8,49997,1,0,0,0,0.75,0.5,0
150,41981.3,40749,1,0,0,0,0.8125,0.5,0
151,29216.5,27744,1,0,0,0,0.875,0.5,0
152,14999.3,15317,1,0,0,0,0.9375,0.5,0
153,0,0,1,0,0,0,1,0.5,0
154,0,0,1,0,0,0,0,0.5625,0
155,18915.2,17629,1,0,0,0,0.0625,0.5625,0
156,36710.7,41327,1,0,0,0,0.125,0.5625,0
157,52478.3,49130,1,0,0,0,0.1875,0.5625,0
158,65630.39999999999,69649,1,0,0,0,0.25,0.5625,0
159,75883.39999999999,69071,1,0,0,0,0.3125,0.5625,0
160,83162.89999999999,86122,1,0,0,0,0.375,0.5625,0
161,87497.3,88145,1,0,0,0,0.4375,0.5625,0
162,88935,87278,1,0,0,0,0.5,0.5625,0
163,87497.3,86122,1,0,0,0,0.5625,0.5625,0
164,83162.89999999999,75429,1,0,0,0,0.625,0.5625,0
165,75883.39999999999,70227,1,0,0,0,0.6875,0.5625,0
166,65630.39999999999,58667,1,0,0,0,0.75,0.5625,0
167,52478.3,58378,1,0,0,0,0.8125,0.5625,0
168,36710.7,32946,1,0,0,0,0.875,0.5625,0
169,18915.2,23120,1,0,0,0,0.9375,0.5625,0
170,0,0,1,0,0,0,1,0.5625,0
171,0,0,1,0,0,0,0,0.625,0
172,23998.9,23120,1,0,0,0,0.0625,0.625,0
173,46304.1,48552,1,0,0,0,0.125,0.625,0
174,65655.60000000001,60690,1,0,0,0,0.1875,0.625,0
175,81400.10000000001,68204,1,0,0,0,0.25,0.625,0
176,93382.5,94503,1,0,0,0,0.3125,0.625,0
177,101723,111843,1,0,0,0,0.375,0.625,0
178,106620,102595,1,0,0,0,0.4375,0.625,0
179,108234,105774,1,0,0,0,0.5,0.625,0
180,106620,112999,1,0,0,0,0.5625,0.625,0
181,101723,102306,1,0,0,0,0.625,0.625,0
182,93382.5,82365,1,0,0,0,0.6875,0.625,0
183,81400.10000000001,80920,1,0,0,0,0.75,0.625,0
184,65655.60000000001,55488,1,0,0,0,0.8125,0.625,0
185,46304.1,41327,1,0,0,0,0.875,0.625,0
186,23998.9,23409,1,0,0,0,0.9375,0.625,0
187,0,0,1,0,0,0,1,0.625,0
188,0,0,1,0,0,0,0,0.6875,0
189,30878.6,30056,1,0,0,0,0.0625,0.6875,0
190,58987.7,66181,1,0,0,0,0.125,0.6875,0
191,82545.89999999999,70805,1,0,0,0,0.1875,0.6875,0
192,100986,106930,1,0,0,0,0.25,0.6875,0
193,114536,121380,1,0,0,0,0.3125,0.6875,0
194,123714,123692,1,0,0,0,0.375,0.6875,0
195,129006,124270,1,0,0,0,0.4375,0.6875,0
196,130734,140165,1,0,0,0,0.5,0.6875,0
197,129006,125715,1,0,0,0,0.5625,0.6875,0
198,123714,127160,1,0,0,0,0.625,0.6875,0
199,114536,124270,1,0,0,0,0.6875,0.6875,0
200,100986,101150,1,0,0,0,0.75,0.6875,0
201,82545.89999999999,80920,1,0,0,0,0.8125,0.6875,0
202,58987.7,58667,1,0,0,0,0.875,0.6875,0
203,30878.6,32946,1,0,0,0,0.9375,0.6875,0
204,0,0,1,0,0,0,1,0.6875,0
205,0,0,1,0,0,0,0,0.75,0
206,40771.7,39304,1,0,0,0,0.0625,0.75,0
207,76499.3,78319,1,0,0,0,0.125,0.75,0
208,104716,98260,1,0,0,0,0.1875,0.75,0
209,125508,137275,1,0,0,0,0.25,0.75,0
210,140049,127738,1,0,0,0,0.3125,0.75,0
211,149554,151436,1,0,0,0,0.375,0.75,0
212,154913,159817,1,0,0,0,0.4375,0.75,0
213,156644,153170,1,0,0,0,0.5,0.75,0
214,154913,153459,1,0,0,0,0.5625,0.75,0
215,149554,143055,1,0,0,0,0.625,0.75,0
216,140049,140165,1,0,0,0,0.6875,0.75,0
217,125508,125137,1,0,0,0,0.75,0.75,0
218,104716,104040,1,0,0,0,0.8125,0.75,0
219,76499.3,80342,1,0,0,0,0.875,0.75,0
220,40771.7,38148,1,0,0,0,0.9375,0.75,0
221,0,0,1,0,0,0,1,0.75,0
222,0,0,1,0,0,0,0,0.8125,0
223,56395.5,58089,1,0,0,0,0.0625,0.8125,0
224,102098,106352,1,0,0,0,0.125,0.8125,0
225,134497,142766,1,0,0,0,0.1875,0.8125,0
226,156258,154904,1,0,0,0,0.25,0.8125,0
227,170521,171955,1,0,0,0,0.3125,0.8125,0
228,179461,178891,1,0,0,0,0.375,0.8125,0
229,184378,186694,1,0,0,0,0.4375,0.8125,0
230,185948,180336,1,0,0,0,0.5,0.8125,0
231,184378,182937,1,0,0,0,0.5625,0.8125,0
232,179461,170221,1,0,0,0,0.625,0.8125,0
233,170521,160106,1,0,0,0,0.6875,0.8125,0
234,156258,145078,1,0,0,0,0.75,0.8125,0
235,134497,137564,1,0,0,0,0.8125,0.8125,0
236,102098,106930,1,0,0,0,0.875,0.8125,0
237,56395.5,57800,1,0,0,0,0.9375,0.8125,0
238,0,0,1,0,0,0,1,0.8125,0
239,0,0,1,0,0,0,0,0.875,0
240,85136.5,83810,1,0,0,0,0.0625,0.875,0
241,142017,143344,1,0,0,0,0.125,0.875,0
242,174809,176290,1,0,0,0,0.1875,0.875,0
243,194271,200277,1,0,0,0,0.25,0.875,0
244,206139,214727,1,0,0,0,0.3125,0.875,0
245,213270,209814,1,0,0,0,0.375,0.875,0
246,217100,223686,1,0,0,0,0.4375,0.875,0
247,218310,211548,1,0,0,0,0.5,0.875,0
248,217100,215594,1,0,0,0,0.5625,0.875,0
249,213270,216750,1,0,0,0,0.625,0.875,0
250,206139,217039,1,0,0,0,0.6875,0.875,0
251,194271,193052,1,0,0,0,0.75,0.875,0
252,174809,173400,1,0,0,0,0.8125,0.875,0
253,142017,139009,1,0,0,0,0.875,0.875,0
254,85136.5,80342,1,0,0,0,0.9375,0.875,0
255,0,0,1,0,0,0,1,0.875,0
256,0,0,1,0,0,0,0,0.9375,0
257,153722,157794,1,0,0,0,0.0625,0.9375,0
258,204678,201722,1,0,0,0,0.125,0.9375,0
259,227372,239003,1,0,0,0,0.1875,0.9375,0
260,239352,246517,1,0,0,0,0.25,0.9375,0
261,246234,233512,1,0,0,0,0.3125,0.9375,0
262,250239,261834,1,0,0,0,0.375,0.9375,0
263,252353,256054,1,0,0,0,0.4375,0.9375,0
264,253016,259811,1,0,0,0,0.5,0.9375,0
265,252353,262990,1,0,0,0,0.5625,0.9375,0
266,250239,254320,1,0,0,0,0.625,0.9375,0
267,246234,244494,1,0,0,0,0.6875,0.9375,0
268,239352,240159,1,0,0,0,0.75,0.9375,0
269,227372,211259,1,0,0,0,0.8125,0.9375,0
270,204678,204323,1,0,0,0,0.875,0.9375,0
271,153722,157794,1,0,0,0,0.9375,0.9375,0
272,0,0,1,0,0,0,1,0.9375,0
273,289000,289000,1,0,0,0,0,1,0
274,289000,289000,1,0,0,0,0.0625,1,0
275,289000,289000,1,0,0,0,0.125,1,0
276,289000,289000,1,0,0,0,0.1875,1,0
277,289000,289000,1,0,0,0,0.25,1,0
278,289000,289000,1,0,0,0,0.3125,1,0
279,289000,289000,1,0,0,0,0.375,1,0
280,289000,289000,1,0,0,0,0.4375,1,0
281,289000,289000,1,0,0,0,0.5,1,0
282,289000,289000,1,0,0,0,0.5625,1,0
283,289000,289000,1,0,0,0,0.625,1,0
284,289000,289000,1,0,0,0,0.6875,1,0
285,289000,289000,1,0,0,0,0.75,1,0
286,289000,289000,1,0,0,0,0.8125,1,0
287,289000,289000,1,0,0,0,0.875,1,0
288,289000,289000,1,0,0,0,0.9375,1,0
289,289000,289000,1,0,0,0,1,1,0
