"id","C_[0]","Cd_[0]","type","v:0","v:1","v:2","Points:0","Points:1","Points:2"
1,0,0,1,0,0,0,0,0,0
2,0,0,1,0,0,0,0.0625,0,0
3,0,0,1,0,0,0,0.125,0,0
4,0,0,1,0,0,0,0.1875,0,0
5,0,0,1,0,0,0,0.25,0,0
6,0,0,1,0,0,0,0.3125,0,0
7,0,0,1,0,0,0,0.375,0,0
8,0,0,1,0,0,0,0.4375,0,0
9,0,0,1,0,0,0,0.5,0,0
10,0,0,1,0,0,0,0.5625,0,0
11,0,0,1,0,0,0,0.625,0,0
12,0,0,1,0,0,0,0.6875,0,0
13,0,0,1,0,0,0,0.75,0,0
14,0,0,1,0,0,0,0.8125,0,0
15,0,0,1,0,0,0,0.875,0,0
16,0,0,1,0,0,0,0.9375,0,0
17,0,0,1,0,0,0,1,0,0
18,0,0,1,0,0,0,0,0.0625,0
19,1229.22,289,1,0,0,0,0.0625,0.0625,0
20,2409.15,2023,1,0,0,0,0.125,0.0625,0
21,3493.13,4624,1,0,0,0,0.1875,0.0625,0
22,4439.28,6358,1,0,0,0,0.25,0.0625,0
23,5212.28,8092,1,0,0,0,0.3125,0.0625,0
24,5784.28,5491,1,0,0,0,0.375,0.0625,0
25,6135.39,6358,1,0,0,0,0.4375,0.0625,0
26,6253.74,6936,1,0,0,0,0.5,0.0625,0
27,6135.39,4913,1,0,0,0,0.5625,0.0625,0
28,5784.28,3757,1,0,0,0,0.625,0.0625,0
29,5212.28,4913,1,0,0,0,0.6875,0.0625,0
30,4439.28,5780,1,0,0,0,0.75,0.0625,0
31,3493.13,4046,1,0,0,0,0.8125,0.0625,0
32,2409.15,2023,1,0,0,0,0.875,0.0625,0
33,1229.22,1445,1,0,0,0,0.9375,0.0625,0
34,0,0,1,0,0,0,1,0.0625,0
35,0,0,1,0,0,0,0,0.125,0
36,2509,3179,1,0,0,0,0.0625,0.125,0
37,4916.76,3179,1,0,0,0,0.125,0.125,0
38,7127.57,5202,1,0,0,0,0.1875,0.125,0
39,9056.01,6358,1,0,0,0,0.25,0.125,0
40,10630.4,9248,1,0,0,0,0.3125,0.125,0
41,11794.6,15317,1,0,0,0,0.375,0.125,0
42,12508.9,13294,1,0,0,0,0.4375,0.125,0
43,12749.6,13294,1,0,0,0,0.5,0.125,0
44,12508.9,12716,1,0,0,0,0.5625,0.125,0
45,11794.6,12138,1,0,0,0,0.625,0.125,0
46,10630.4,8381,1,0,0,0,0.6875,0.125,0
47,9056.01,9248,1,0,0,0,0.75,0.125,0
48,7127.57,6647,1,0,0,0,0.8125,0.125,0
49,4916.76,4335,1,0,0,0,0.875,0.125,0
50,2509,3179,1,0,0,0,0.9375,0.125,0
51,0,0,1,0,0,0,1,0.125,0
52,0,0,1,0,0,0,0,0.1875,0
53,3892.68,4624,1,0,0,0,0.0625,0.1875,0
54,7626.37,6069,1,0,0,0,0.125,0.1875,0
55,11051.4,10404,1,0,0,0,0.1875,0.1875,0
56,14035.4,12716,1,0,0,0,0.25,0.1875,0
57,16468.3,17340,1,0,0,0,0.3125,0.1875,0
58,18265.3,16762,1,0,0,0,0.375,0.1875,0
59,19366.7,18496,1,0,0,0,0.4375,0.1875,0
60,19737.7,22831,1,0,0,0,0.5,0.1875,0
61,19366.7,23987,1,0,0,0,0.5625,0.1875,0
62,18265.3,18207,1,0,0,0,0.625,0.1875,0
63,16468.3,15606,1,0,0,0,0.6875,0.1875,0
64,14035.4,15606,1,0,0,0,0.75,0.1875,0
65,11051.4,11271,1,0,0,0,0.8125,0.1875,0
66,7626.37,4046,1,0,0,0,0.875,0.1875,0
67,3892.68,4046,1,0,0,0,0.9375,0.1875,0
68,0,0,1,0,0,0,1,0.1875,0
69,0,0,1,0,0,0,0,0.25,0
70,5439.47,6069,1,0,0,0,0.0625,0.25,0
71,10652.4,13005,1,0,0,0,0.125,0.25,0
72,15427.2,17629,1,0,0,0,0.1875,0.25,0
73,19578.8,24276,1,0,0,0,0.25,0.25,0
74,22956.5,23120,1,0,0,0,0.3125,0.25,0
75,25446.5,25721,1,0,0,0,0.375,0.25,0
76,26970.5,24565,1,0,0,0,0.4375,0.25,0
77,27483.4,28611,1,0,0,0,0.5,0.25,0
78,26970.5,32079,1,0,0,0,0.5625,0.25,0
79,25446.5,25432,1,0,0,0,0.625,0.25,0
80,22956.5,26299,1,0,0,0,0.6875,0.25,0
81,19578.8,18496,1,0,0,0,0.75,0.25,0
82,15427.2,17629,1,0,0,0,0.8125,0.25,0
83,10652.4,11271,1,0,0,0,0.875,0.25,0
84,5439.47,7225,1,0,0,0,0.9375,0.25,0
85,0,0,1,0,0,0,1,0.25,0
86,0,0,1,0,0,0,0,0.3125,0
87,7218.64,6358,1,0,0,0,0.0625,0.3125,0
88,14127.7,14739,1,0,0,0,0.125,0.3125,0
89,20441,20808,1,0,0,0,0.1875,0.3125,0
90,25913.6,23120,1,0,0,0,0.25,0.3125,0
91,30351.6,34969,1,0,0,0,0.3125,0.3125,0
92,33613.3,35836,1,0,0,0,0.375,0.3125,0
93,35605.2,34969,1,0,0,0,0.4375,0.3125,0
94,36274.8,32368,1,0,0,0,0.5,0.3125,0
95,35605.2,32657,1,0,0,0,0.5625,0.3125,0
96,33613.3,31790,1,0,0,0,0.625,0.3125,0
97,30351.6,33813,1,0,0,0,0.6875,0.3125,0
98,25913.6,20519,1,0,0,0,0.75,0.3125,0
99,20441,26010,1,0,0,0,0.8125,0.3125,0
100,14127.7,12427,1,0,0,0,0.875,0.3125,0
101,7218.64,8092,1,0,0,0,0.9375,0.3125,0
102,0,0,1,0,0,0,1,0.3125,0
103,0,0,1,0,0,0,0,0.375,0
104,9315.530000000001,9537,1,0,0,0,0.0625,0.375,0
105,18213.9,19652,1,0,0,0,0.125,0.375,0
106,26315.5,28322,1,0,0,0,0.1875,0.375,0
107,33305.6,34102,1,0,0,0,0.25,0.375,0
108,38946.3,38437,1,0,0,0,0.3125,0.375,0
109,43073.5,46529,1,0,0,0,0.375,0.375,0
110,45585.6,44217,1,0,0,0,0.4375,0.375,0
111,46428.4,49997,1,0,0,0,0.5,0.375,0
112,45585.6,45084,1,0,0,0,0.5625,0.375,0
113,43073.5,49708,1,0,0,0,0.625,0.375,0
114,38946.3,38437,1,0,0,0,0.6875,0.375,0
115,33305.6,27455,1,0,0,0,0.75,0.375,0
116,26315.5,30056,1,0,0,0,0.8125,0.375,0
117,18213.9,20808,1,0,0,0,0.875,0.375,0
118,9315.530000000001,11271,1,0,0,0,0.9375,0.375,0
119,0,0,1,0,0,0,1,0.375,0
120,0,0,1,0,0,0,0,0.4375,0
121,11841.2,13872,1,0,0,0,0.0625,0.4375,0
122,23117.8,25432,1,0,0,0,0.125,0.4375,0
123,33327.9,39015,1,0,0,0,0.1875,0.4375,0
124,42075.4,30634,1,0,0,0,0.25,0.4375,0
125,49082.3,45951,1,0,0,0,0.3125,0.4375,0
126,54175.5,49708,1,0,0,0,0.375,0.4375,0
127,57260.2,61268,1,0,0,0,0.4375,0.4375,0
128,58292.6,52020,1,0,0,0,0.5,0.4375,0
129,57260.2,66470,1,0,0,0,0.5625,0.4375,0
130,54175.5,52598,1,0,0,0,0.625,0.4375,0
131,49082.3,48552,1,0,0,0,0.6875,0.4375,0
132,42075.4,42772,1,0,0,0,0.75,0.4375,0
133,33327.9,34102,1,0,0,0,0.8125,0.4375,0
134,23117.8,23698,1,0,0,0,0.875,0.4375,0
135,11841.2,10115,1,0,0,0,0.9375,0.4375,0
136,0,0,1,0,0,0,1,0.4375,0
137,0,0,1,0,0,0,0,0.5,0
138,14949.2,19652,1,0,0,0,0.0625,0.5,0
139,29118.3,28611,1,0,0,0,0.125,0.5,0
140,41838.8,37281,1,0,0,0,0.1875,0.5,0
141,52621.5,47685,1,0,0,0,0.25,0.5,0
142,61164.2,64447,1,0,0,0,0.3125,0.5,0
143,67313.89999999999,67048,1,0,0,0,0.375,0.5,0
144,71012.2,63291,1,0,0,0,0.4375,0.5,0
145,72245.3,76585,1,0,0,0,0.5,0.5,0
146,71012.2,76007,1,0,0,0,0.5625,0.5,0
147,67313.89999999999,64447,1,0,0,0,0.625,0.5,0
148,61164.2,62135,1,0,0,0,0.6875,0.5,0
149,52621.5,49419,1,0,0,0,0.75,0.5,0
150,41838.8,36992,1,0,0,0,0.8125,0.5,0
151,29118.3,25432,1,0,0,0,0.875,0.5,0
152,14949.2,13872,1,0,0,0,0.9375,0.5,0
153,0,0,1,0,0,0,1,0.5,0
154,0,0,1,0,0,0,0,0.5625,0
155,18866.1,21675,1,0,0,0,0.0625,0.5625,0
156,36614.4,35258,1,0,0,0,0.125,0.5625,0
157,52338.5,58378,1,0,0,0,0.1875,0.5625,0
158,65452.5,57800,1,0,0,0,0.25,0.5625,0
159,75674.2,77452,1,0,0,0,0.3125,0.5625,0
160,82930.5,84966,1,0,0,0,0.375,0.5625,0
161,87250.5,87567,1,0,0,0,0.4375,0.5625,0
162,88683.39999999999,76874,1,0,0,0,0.5,0.5625,0
163,87250.5,85833,1,0,0,0,0.5625,0.5625,0
164,82930.5,83232,1,0,0,0,0.625,0.5625,0
165,75674.2,74851,1,0,0,0,0.6875,0.5625,0
166,65452.5,65314,1,0,0,0,0.75,0.5625,0
167,52338.5,49997,1,0,0,0,0.8125,0.5625,0
168,36614.4,37281,1,0,0,0,0.875,0.5625,0
169,18866.1,17629,1,0,0,0,0.9375,0.5625,0
170,0,0,1,0,0,0,1,0.5625,0
171,0,0,1,0,0,0,0,0.625,0
172,23952.7,27166,1,0,0,0,0.0625,0.625,0
173,46213.4,48263,1,0,0,0,0.125,0.625,0
174,65524,59534,1,0,0,0,0.1875,0.625,0
175,81232.5,83232,1,0,0,0,0.25,0.625,0
176,93185.39999999999,89012,1,0,0,0,0.3125,0.625,0
177,101504,95659,1,0,0,0,0.375,0.625,0
178,106388,104907,1,0,0,0,0.4375,0.625,0
179,107997,112710,1,0,0,0,0.5,0.625,0
180,106388,107797,1,0,0,0,0.5625,0.625,0
181,101504,102017,1,0,0,0,0.625,0.625,0
182,93185.39999999999,92769,1,0,0,0,0.6875,0.625,0
183,81232.5,83810,1,0,0,0,0.75,0.625,0
184,65524,61268,1,0,0,0,0.8125,0.625,0
185,46213.4,49130,1,0,0,0,0.875,0.625,0
186,23952.7,32368,1,0,0,0,0.9375,0.625,0
187,0,0,1,0,0,0,1,0.625,0
188,0,0,1,0,0,0,0,0.6875,0
189,30837,23987,1,0,0,0,0.0625,0.6875,0
190,58906,60979,1,0,0,0,0.125,0.6875,0
191,82427.39999999999,83521,1,0,0,0,0.1875,0.6875,0
192,100835,107508,1,0,0,0,0.25,0.6875,0
193,114359,104329,1,0,0,0,0.3125,0.6875,0
194,123517,122247,1,0,0,0,0.375,0.6875,0
195,128797,139009,1,0,0,0,0.4375,0.6875,0
196,130521,123403,1,0,0,0,0.5,0.6875,0
197,128797,132073,1,0,0,0,0.5625,0.6875,0
198,123517,123114,1,0,0,0,0.625,0.6875,0
199,114359,108664,1,0,0,0,0.6875,0.6875,0
200,100835,99705,1,0,0,0,0.75,0.6875,0
201,82427.39999999999,92191,1,0,0,0,0.8125,0.6875,0
202,58906,61846,1,0,0,0,0.875,0.6875,0
203,30837,33524,1,0,0,0,0.9375,0.6875,0
204,0,0,1,0,0,0,1,0.6875,0
205,0,0,1,0,0,0,0,0.75,0
206,40736.3,46240,1,0,0,0,0.0625,0.75,0
207,76429.89999999999,79186,1,0,0,0,0.125,0.75,0
208,104616,103751,1,0,0,0,0.1875,0.75,0
209,125380,128894,1,0,0,0,0.25,0.75,0
210,139898,147390,1,0,0,0,0.3125,0.75,0
211,149386,160684,1,0,0,0,0.375,0.75,0
212,154735,165308,1,0,0,0,0.4375,0.75,0
213,156462,148257,1,0,0,0,0.5,0.75,0
214,154735,163863,1,0,0,0,0.5625,0.75,0
215,149386,146812,1,0,0,0,0.625,0.75,0
216,139898,152303,1,0,0,0,0.6875,0.75,0
217,125380,124270,1,0,0,0,0.75,0.75,0
218,104616,99994,1,0,0,0,0.8125,0.75,0
219,76429.89999999999,80631,1,0,0,0,0.875,0.75,0
220,40736.3,40749,1,0,0,0,0.9375,0.75,0
221,0,0,1,0,0,0,1,0.75,0
222,0,0,1,0,0,0,0,0.8125,0
223,56367.6,54910,1,0,0,0,0.0625,0.8125,0
224,102044,106352,1,0,0,0,0.125,0.8125,0
225,134418,131206,1,0,0,0,0.1875,0.8125,0
226,156157,154326,1,0,0,0,0.25,0.8125,0
227,170403,167042,1,0,0,0,0.3125,0.8125,0
228,179330,186983,1,0,0,0,0.375,0.8125,0
229,184238,180336,1,0,0,0,0.4375,0.8125,0
230,185805,178024,1,0,0,0,0.5,0.8125,0
231,184238,186694,1,0,0,0,0.5625,0.8125,0
232,179330,176001,1,0,0,0,0.625,0.8125,0
233,170403,162707,1,0,0,0,0.6875,0.8125,0
234,156157,167042,1,0,0,0,0.75,0.8125,0
235,134418,132362,1,0,0,0,0.8125,0.8125,0
236,102044,98549,1,0,0,0,0.875,0.8125,0
237,56367.6,54043,1,0,0,0,0.9375,0.8125,0
238,0,0,1,0,0,0,1,0.8125,0
239,0,0,1,0,0,0,0,0.875,0
240,85117.39999999999,76874,1,0,0,0,0.0625,0.875,0
241,141979,139298,1,0,0,0,0.125,0.875,0
242,174755,166464,1,0,0,0,0.1875,0.875,0
243,194202,185827,1,0,0,0,0.25,0.875,0
244,206057,213571,1,0,0,0,0.3125,0.875,0
245,213179,216461,1,0,0,0,0.375,0.875,0
246,217004,210970,1,0,0,0,0.4375,0.875,0
247,218212,221374,1,0,0,0,0.5,0.875,0
248,217004,223108,1,0,0,0,0.5625,0.875,0
249,213179,216750,1,0,0,0,0.625,0.875,0
250,206057,206635,1,0,0,0,0.6875,0.875,0
251,194202,197387,1,0,0,0,0.75,0.875,0
252,174755,181492,1,0,0,0,0.8125,0.875,0
253,141979,143344,1,0,0,0,0.875,0.875,0
254,85117.39999999999,87856,1,0,0,0,0.9375,0.875,0
255,0,0,1,0,0,0,1,0.875,0
256,0,0,1,0,0,0,0,0.9375,0
257,153712,150569,1,0,0,0,0.0625,0.9375,0
258,204659,187272,1,0,0,0,0.125,0.9375,0
259,227344,220507,1,0,0,0,0.1875,0.9375,0
260,239316,237558,1,0,0,0,0.25,0.9375,0
261,246192,261256,1,0,0,0,0.3125,0.9375,0
262,250192,241604,1,0,0,0,0.375,0.9375,0
263,252304,243338,1,0,0,0,0.4375,0.9375,0
264,252966,260389,1,0,0,0,0.5,0.9375,0
265,252304,250852,1,0,0,0,0.5625,0.9375,0
266,250192,266169,1,0,0,0,0.625,0.9375,0
267,246192,261545,1,0,0,0,0.6875,0.9375,0
268,239316,238136,1,0,0,0,0.75,0.9375,0
269,227344,219640,1,0,0,0,0.8125,0.9375,0
270,204659,203167,1,0,0,0,0.875,0.9375,0
271,153712,155193,1,0,0,0,0.9375,0.9375,0
272,0,0,1,0,0,0,1,0.9375,0
273,289000,289000,1,0,0,0,0,1,0
274,289000,289000,1,0,0,0,0.0625,1,0
275,289000,289000,1,0,0,0,0.125,1,0
276,289000,289000,1,0,0,0,0.1875,1,0
277,289000,289000,1,0,0,0,0.25,1,0
278,289000,289000,1,0,0,0,0.3125,1,0
279,289000,289000,1,0,0,0,0.375,1,0
280,289000,289000,1,0,0,0,0.4375,1,0
281,289000,289000,1,0,0,0,0.5,1,0
282,289000,289000,1,0,0,0,0.5625,1,0
283,289000,289000,1,0,0,0,0.625,1,0
284,289000,289000,1,0,0,0,0.6875,1,0
285,289000,289000,1,0,0,0,0.75,1,0
286,289000,289000,1,0,0,0,0.8125,1,0
287,289000,289000,1,0,0,0,0.875,1,0
288,289000,289000,1,0,0,0,0.9375,1,0
289,289000,289000,1,0,0,0,1,1,0
