"id","C_[0]","Cd_[0]","type","v:0","v:1","v:2","Points:0","Points:1","Points:2"
1,0,0,1,0,0,0,0,0,0
2,0,0,1,0,0,0,0.0625,0,0
3,0,0,1,0,0,0,0.125,0,0
4,0,0,1,0,0,0,0.1875,0,0
5,0,0,1,0,0,0,0.25,0,0
6,0,0,1,0,0,0,0.3125,0,0
7,0,0,1,0,0,0,0.375,0,0
8,0,0,1,0,0,0,0.4375,0,0
9,0,0,1,0,0,0,0.5,0,0
10,0,0,1,0,0,0,0.5625,0,0
11,0,0,1,0,0,0,0.625,0,0
12,0,0,1,0,0,0,0.6875,0,0
13,0,0,1,0,0,0,0.75,0,0
14,0,0,1,0,0,0,0.8125,0,0
15,0,0,1,0,0,0,0.875,0,0
16,0,0,1,0,0,0,0.9375,0,0
17,0,0,1,0,0,0,1,0,0
18,0,0,1,0,0,0,0,0.0625,0
19,1234.13,1445,1,0,0,0,0.0625,0.0625,0
20,2418.79,4335,1,0,0,0,0.125,0.0625,0
21,3507.12,2023,1,0,0,0,0.1875,0.0625,0
22,4457.09,3757,1,0,0,0,0.25,0.0625,0
23,5233.22,6358,1,0,0,0,0.3125,0.0625,0
24,5807.55,5491,1,0,0,0,0.375,0.0625,0
25,6160.09,7225,1,0,0,0,0.4375,0.0625,0
26,6278.93,7514,1,0,0,0,0.5,0.0625,0
27,6160.09,6647,1,0,0,0,0.5625,0.0625,0
28,5807.55,5780,1,0,0,0,0.625,0.0625,0
29,5233.22,4913,1,0,0,0,0.6875,0.0625,0
30,4457.09,3179,1,0,0,0,0.75,0.0625,0
31,3507.12,4913,1,0,0,0,0.8125,0.0625,0
32,2418.79,3468,1,0,0,0,0.875,0.0625,0
33,1234.13,1445,1,0,0,0,0.9375,0.0625,0
34,0,0,1,0,0,0,1,0.0625,0
35,0,0,1,0,0,0,0,0.125,0
36,2518.64,3179,1,0,0,0,0.0625,0.125,0
37,4935.67,4335,1,0,0,0,0.125,0.125,0
38,7155.02,10982,1,0,0,0,0.1875,0.125,0
39,9090.950000000001,8381,1,0,0,0,0.25,0.125,0
40,10671.5,13872,1,0,0,0,0.3125,0.125,0
41,11840.3,9826,1,0,0,0,0.375,0.125,0
42,12557.4,15028,1,0,0,0,0.4375,0.125,0
43,12799.1,12138,1,0,0,0,0.5,0.125,0
44,12557.4,13294,1,0,0,0,0.5625,0.125,0
45,11840.3,8092,1,0,0,0,0.625,0.125,0
46,10671.5,14161,1,0,0,0,0.6875,0.125,0
47,9090.950000000001,8092,1,0,0,0,0.75,0.125,0
48,7155.02,6936,1,0,0,0,0.8125,0.125,0
49,4935.67,6936,1,0,0,0,0.875,0.125,0
50,2518.64,2601,1,0,0,0,0.9375,0.125,0
51,0,0,1,0,0,0,1,0.125,0
52,0,0,1,0,0,0,0,0.1875,0
53,3906.68,3757,1,0,0,0,0.0625,0.1875,0
54,7653.82,9537,1,0,0,0,0.125,0.1875,0
55,11091.3,8092,1,0,0,0,0.1875,0.1875,0
56,14086.1,12138,1,0,0,0,0.25,0.1875,0
57,16527.9,14161,1,0,0,0,0.3125,0.1875,0
58,18331.5,18496,1,0,0,0,0.375,0.1875,0
59,19437.1,18785,1,0,0,0,0.4375,0.1875,0
60,19809.4,19363,1,0,0,0,0.5,0.1875,0
61,19437.1,16762,1,0,0,0,0.5625,0.1875,0
62,18331.5,18785,1,0,0,0,0.625,0.1875,0
63,16527.9,16762,1,0,0,0,0.6875,0.1875,0
64,14086.1,8092,1,0,0,0,0.75,0.1875,0
65,11091.3,15606,1,0,0,0,0.8125,0.1875,0
66,7653.82,9248,1,0,0,0,0.875,0.1875,0
67,3906.68,3179,1,0,0,0,0.9375,0.1875,0
68,0,0,1,0,0,0,1,0.1875,0
69,0,0,1,0,0,0,0,0.25,0
70,5457.28,5202,1,0,0,0,0.0625,0.25,0
71,10687.4,10693,1,0,0,0,0.125,0.25,0
72,15477.9,12716,1,0,0,0,0.1875,0.25,0
73,19643.4,17918,1,0,0,0,0.25,0.25,0
74,23032.5,25432,1,0,0,0,0.3125,0.25,0
75,25530.8,28611,1,0,0,0,0.375,0.25,0
76,27060,25432,1,0,0,0,0.4375,0.25,0
77,27574.7,27166,1,0,0,0,0.5,0.25,0
78,27060,25721,1,0,0,0,0.5625,0.25,0
79,25530.8,22253,1,0,0,0,0.625,0.25,0
80,23032.5,17629,1,0,0,0,0.6875,0.25,0
81,19643.4,21097,1,0,0,0,0.75,0.25,0
82,15477.9,14450,1,0,0,0,0.8125,0.25,0
83,10687.4,11849,1,0,0,0,0.875,0.25,0
84,5457.28,4335,1,0,0,0,0.9375,0.25,0
85,0,0,1,0,0,0,1,0.25,0
86,0,0,1,0,0,0,0,0.3125,0
87,7239.58,5491,1,0,0,0,0.0625,0.3125,0
88,14168.8,15317,1,0,0,0,0.125,0.3125,0
89,20500.7,17051,1,0,0,0,0.1875,0.3125,0
90,25989.5,26588,1,0,0,0,0.25,0.3125,0
91,30440.8,31212,1,0,0,0,0.3125,0.3125,0
92,33712.5,36414,1,0,0,0,0.375,0.3125,0
93,35710.5,36992,1,0,0,0,0.4375,0.3125,0
94,36382.2,38437,1,0,0,0,0.5,0.3125,0
95,35710.5,39015,1,0,0,0,0.5625,0.3125,0
96,33712.5,35258,1,0,0,0,0.625,0.3125,0
97,30440.8,26010,1,0,0,0,0.6875,0.3125,0
98,25989.5,23409,1,0,0,0,0.75,0.3125,0
99,20500.7,21964,1,0,0,0,0.8125,0.3125,0
100,14168.8,18785,1,0,0,0,0.875,0.3125,0
101,7239.58,8670,1,0,0,0,0.9375,0.3125,0
102,0,0,1,0,0,0,1,0.3125,0
103,0,0,1,0,0,0,0,0.375,0
104,9338.799999999999,9826,1,0,0,0,0.0625,0.375,0
105,18259.6,18207,1,0,0,0,0.125,0.375,0
106,26381.8,28611,1,0,0,0,0.1875,0.375,0
107,33390,33524,1,0,0,0,0.25,0.375,0
108,39045.5,36414,1,0,0,0,0.3125,0.375,0
109,43183.8,45662,1,0,0,0,0.375,0.375,0
110,45702.6,48263,1,0,0,0,0.4375,0.375,0
111,46547.7,43928,1,0,0,0,0.5,0.375,0
112,45702.6,44795,1,0,0,0,0.5625,0.375,0
113,43183.8,40749,1,0,0,0,0.625,0.375,0
114,39045.5,36125,1,0,0,0,0.6875,0.375,0
115,33390,34680,1,0,0,0,0.75,0.375,0
116,26381.8,23409,1,0,0,0,0.8125,0.375,0
117,18259.6,19363,1,0,0,0,0.875,0.375,0
118,9338.799999999999,11271,1,0,0,0,0.9375,0.375,0
119,0,0,1,0,0,0,1,0.375,0
120,0,0,1,0,0,0,0,0.4375,0
121,11866,11271,1,0,0,0,0.0625,0.4375,0
122,23166.2,21097,1,0,0,0,0.125,0.4375,0
123,33398.2,30923,1,0,0,0,0.1875,0.4375,0
124,42165,44217,1,0,0,0,0.25,0.4375,0
125,49187.6,42194,1,0,0,0,0.3125,0.4375,0
126,54292.5,54332,1,0,0,0,0.375,0.4375,0
127,57384.5,56066,1,0,0,0,0.4375,0.4375,0
128,58419.2,54910,1,0,0,0,0.5,0.4375,0
129,57384.5,58378,1,0,0,0,0.5625,0.4375,0
130,54292.5,58667,1,0,0,0,0.625,0.4375,0
131,49187.6,51442,1,0,0,0,0.6875,0.4375,0
132,42165,42772,1,0,0,0,0.75,0.4375,0
133,33398.2,36125,1,0,0,0,0.8125,0.4375,0
134,23166.2,24276,1,0,0,0,0.875,0.4375,0
135,11866,13005,1,0,0,0,0.9375,0.4375,0
136,0,0,1,0,0,0,1,0.4375,0
137,0,0,1,0,0,0,0,0.5,0
138,14974.4,17918,1,0,0,0,0.0625,0.5,0
139,29167.8,27166,1,0,0,0,0.125,0.5,0
140,41910.5,38148,1,0,0,0,0.1875,0.5,0
141,52712.8,51153,1,0,0,0,0.25,0.5,0
142,61271.5,64158,1,0,0,0,0.3125,0.5,0
143,67433.2,75718,1,0,0,0,0.375,0.5,0
144,71138.89999999999,75140,1,0,0,0,0.4375,0.5,0
145,72374.39999999999,69360,1,0,0,0,0.5,0.5,0
146,71138.89999999999,73117,1,0,0,0,0.5625,0.5,0
147,67433.2,65603,1,0,0,0,0.625,0.5,0
148,61271.5,62713,1,0,0,0,0.6875,0.5,0
149,52712.8,54621,1,0,0,0,0.75,0.5,0
150,41910.5,48552,1,0,0,0,0.8125,0.5,0
151,29167.8,26588,1,0,0,0,0.875,0.5,0
152,14974.4,11271,1,0,0,0,0.9375,0.5,0
153,0,0,1,0,0,0,1,0.5,0
154,0,0,1,0,0,0,0,0.5625,0
155,18890.8,17918,1,0,0,0,0.0625,0.5625,0
156,36662.9,39882,1,0,0,0,0.125,0.5625,0
157,52408.8,56066,1,0,0,0,0.1875,0.5625,0
158,65542.10000000001,57511,1,0,0,0,0.25,0.5625,0
159,75779.5,83521,1,0,0,0,0.3125,0.5625,0
160,83047.5,86700,1,0,0,0,0.375,0.5625,0
161,87374.7,89012,1,0,0,0,0.4375,0.5625,0
162,88810,80053,1,0,0,0,0.5,0.5625,0
163,87374.7,85255,1,0,0,0,0.5625,0.5625,0
164,83047.5,84388,1,0,0,0,0.625,0.5625,0
165,75779.5,75429,1,0,0,0,0.6875,0.5625,0
166,65542.10000000001,65603,1,0,0,0,0.75,0.5625,0
167,52408.8,58667,1,0,0,0,0.8125,0.5625,0
168,36662.9,37281,1,0,0,0,0.875,0.5625,0
169,18890.8,19363,1,0,0,0,0.9375,0.5625,0
170,0,0,1,0,0,0,1,0.5625,0
171,0,0,1,0,0,0,0,0.625,0
172,23976,23987,1,0,0,0,0.0625,0.625,0
173,46259,52598,1,0,0,0,0.125,0.625,0
174,65590.3,59245,1,0,0,0,0.1875,0.625,0
175,81316.89999999999,75718,1,0,0,0,0.25,0.625,0
176,93284.60000000001,97682,1,0,0,0,0.3125,0.625,0
177,101614,104040,1,0,0,0,0.375,0.625,0
178,106505,108086,1,0,0,0,0.4375,0.625,0
179,108116,106063,1,0,0,0,0.5,0.625,0
180,106505,120802,1,0,0,0,0.5625,0.625,0
181,101614,99994,1,0,0,0,0.625,0.625,0
182,93284.60000000001,95081,1,0,0,0,0.6875,0.625,0
183,81316.89999999999,82076,1,0,0,0,0.75,0.625,0
184,65590.3,66470,1,0,0,0,0.8125,0.625,0
185,46259,50864,1,0,0,0,0.875,0.625,0
186,23976,23698,1,0,0,0,0.9375,0.625,0
187,0,0,1,0,0,0,1,0.625,0
188,0,0,1,0,0,0,0,0.6875,0
189,30857.9,30923,1,0,0,0,0.0625,0.6875,0
190,58947.1,61557,1,0,0,0,0.125,0.6875,0
191,82487,90168,1,0,0,0,0.1875,0.6875,0
192,100911,98260,1,0,0,0,0.25,0.6875,0
193,114448,117045,1,0,0,0,0.3125,0.6875,0
194,123616,133807,1,0,0,0,0.375,0.6875,0
195,128902,135830,1,0,0,0,0.4375,0.6875,0
196,130628,132362,1,0,0,0,0.5,0.6875,0
197,128902,127449,1,0,0,0,0.5625,0.6875,0
198,123616,121669,1,0,0,0,0.625,0.6875,0
199,114448,119357,1,0,0,0,0.6875,0.6875,0
200,100911,97393,1,0,0,0,0.75,0.6875,0
201,82487,81787,1,0,0,0,0.8125,0.6875,0
202,58947.1,53465,1,0,0,0,0.875,0.6875,0
203,30857.9,29189,1,0,0,0,0.9375,0.6875,0
204,0,0,1,0,0,0,1,0.6875,0
205,0,0,1,0,0,0,0,0.75,0
206,40754.1,41327,1,0,0,0,0.0625,0.75,0
207,76464.89999999999,75718,1,0,0,0,0.125,0.75,0
208,104666,89590,1,0,0,0,0.1875,0.75,0
209,125444,129472,1,0,0,0,0.25,0.75,0
210,139974,132940,1,0,0,0,0.3125,0.75,0
211,149471,152014,1,0,0,0,0.375,0.75,0
212,154825,152303,1,0,0,0,0.4375,0.75,0
213,156554,165019,1,0,0,0,0.5,0.75,0
214,154825,143922,1,0,0,0,0.5625,0.75,0
215,149471,153170,1,0,0,0,0.625,0.75,0
216,139974,141899,1,0,0,0,0.6875,0.75,0
217,125444,132940,1,0,0,0,0.75,0.75,0
218,104666,103751,1,0,0,0,0.8125,0.75,0
219,76464.89999999999,74273,1,0,0,0,0.875,0.75,0
220,40754.1,44217,1,0,0,0,0.9375,0.75,0
221,0,0,1,0,0,0,1,0.75,0
222,0,0,1,0,0,0,0,0.8125,0
223,56381.6,51731,1,0,0,0,0.0625,0.8125,0
224,102071,101439,1,0,0,0,0.125,0.8125,0
225,134458,147101,1,0,0,0,0.1875,0.8125,0
226,156208,162707,1,0,0,0,0.25,0.8125,0
227,170462,171955,1,0,0,0,0.3125,0.8125,0
228,179396,178313,1,0,0,0,0.375,0.8125,0
229,184309,186983,1,0,0,0,0.4375,0.8125,0
230,185877,192474,1,0,0,0,0.5,0.8125,0
231,184309,180047,1,0,0,0,0.5625,0.8125,0
232,179396,176868,1,0,0,0,0.625,0.8125,0
233,170462,172822,1,0,0,0,0.6875,0.8125,0
234,156208,160395,1,0,0,0,0.75,0.8125,0
235,134458,137564,1,0,0,0,0.8125,0.8125,0
236,102071,96237,1,0,0,0,0.875,0.8125,0
237,56381.6,53176,1,0,0,0,0.9375,0.8125,0
238,0,0,1,0,0,0,1,0.8125,0
239,0,0,1,0,0,0,0,0.875,0
240,85127,84388,1,0,0,0,0.0625,0.875,0
241,141998,141032,1,0,0,0,0.125,0.875,0
242,174782,166175,1,0,0,0,0.1875,0.875,0
243,194237,186116,1,0,0,0,0.25,0.875,0
244,206098,205768,1,0,0,0,0.3125,0.875,0
245,213225,211548,1,0,0,0,0.375,0.875,0
246,217052,213860,1,0,0,0,0.4375,0.875,0
247,218261,221952,1,0,0,0,0.5,0.875,0
248,217052,213860,1,0,0,0,0.5625,0.875,0
249,213225,212704,1,0,0,0,0.625,0.875,0
250,206098,210103,1,0,0,0,0.6875,0.875,0
251,194237,198254,1,0,0,0,0.75,0.875,0
252,174782,180914,1,0,0,0,0.8125,0.875,0
253,141998,144211,1,0,0,0,0.875,0.875,0
254,85127,88723,1,0,0,0,0.9375,0.875,0
255,0,0,1,0,0,0,1,0.875,0
256,0,0,1,0,0,0,0,0.9375,0
257,153717,156927,1,0,0,0,0.0625,0.9375,0
258,204668,206057,1,0,0,0,0.125,0.9375,0
259,227358,231778,1,0,0,0,0.1875,0.9375,0
260,239334,234090,1,0,0,0,0.25,0.9375,0
261,246213,249407,1,0,0,0,0.3125,0.9375,0
262,250216,241604,1,0,0,0,0.375,0.9375,0
263,252329,238425,1,0,0,0,0.4375,0.9375,0
264,252991,248251,1,0,0,0,0.5,0.9375,0
265,252329,268192,1,0,0,0,0.5625,0.9375,0
266,250216,260389,1,0,0,0,0.625,0.9375,0
267,246213,256921,1,0,0,0,0.6875,0.9375,0
268,239334,244494,1,0,0,0,0.75,0.9375,0
269,227358,226576,1,0,0,0,0.8125,0.9375,0
270,204668,207791,1,0,0,0,0.875,0.9375,0
271,153717,151725,1,0,0,0,0.9375,0.9375,0
272,0,0,1,0,0,0,1,0.9375,0
273,289000,289000,1,0,0,0,0,1,0
274,289000,289000,1,0,0,0,0.0625,1,0
275,289000,289000,1,0,0,0,0.125,1,0
276,289000,289000,1,0,0,0,0.1875,1,0
277,289000,289000,1,0,0,0,0.25,1,0
278,289000,289000,1,0,0,0,0.3125,1,0
279,289000,289000,1,0,0,0,0.375,1,0
280,289000,289000,1,0,0,0,0.4375,1,0
281,289000,289000,1,0,0,0,0.5,1,0
282,289000,289000,1,0,0,0,0.5625,1,0
283,289000,289000,1,0,0,0,0.625,1,0
284,289000,289000,1,0,0,0,0.6875,1,0
285,289000,289000,1,0,0,0,0.75,1,0
286,289000,289000,1,0,0,0,0.8125,1,0
287,289000,289000,1,0,0,0,0.875,1,0
288,289000,289000,1,0,0,0,0.9375,1,0
289,289000,289000,1,0,0,0,1,1,0
