"id","C_[0]","Cd_[0]","type","v:0","v:1","v:2","Points:0","Points:1","Points:2"
1,0,0,1,0,0,0,0,0,0
2,0,0,1,0,0,0,0.0625,0,0
3,0,0,1,0,0,0,0.125,0,0
4,0,0,1,0,0,0,0.1875,0,0
5,0,0,1,0,0,0,0.25,0,0
6,0,0,1,0,0,0,0.3125,0,0
7,0,0,1,0,0,0,0.375,0,0
8,0,0,1,0,0,0,0.4375,0,0
9,0,0,1,0,0,0,0.5,0,0
10,0,0,1,0,0,0,0.5625,0,0
11,0,0,1,0,0,0,0.625,0,0
12,0,0,1,0,0,0,0.6875,0,0
13,0,0,1,0,0,0,0.75,0,0
14,0,0,1,0,0,0,0.8125,0,0
15,0,0,1,0,0,0,0.875,0,0
16,0,0,1,0,0,0,0.9375,0,0
17,0,0,1,0,0,0,1,0,0
18,0,0,1,0,0,0,0,0.0625,0
19,1172.32,1156,1,0,0,0,0.0625,0.0625,0
20,2297.55,2890,1,0,0,0,0.125,0.0625,0
21,3331.1,4335,1,0,0,0,0.1875,0.0625,0
22,4233.06,5780,1,0,0,0,0.25,0.0625,0
23,4969.78,6647,1,0,0,0,0.3125,0.0625,0
24,5514.83,4624,1,0,0,0,0.375,0.0625,0
25,5849.35,6936,1,0,0,0,0.4375,0.0625,0
26,5962.1,8092,1,0,0,0,0.5,0.0625,0
27,5849.35,6069,1,0,0,0,0.5625,0.0625,0
28,5514.83,6936,1,0,0,0,0.625,0.0625,0
29,4969.78,3468,1,0,0,0,0.6875,0.0625,0
30,4233.06,2890,1,0,0,0,0.75,0.0625,0
31,3331.1,1445,1,0,0,0,0.8125,0.0625,0
32,2297.55,1445,1,0,0,0,0.875,0.0625,0
33,1172.32,1445,1,0,0,0,0.9375,0.0625,0
34,0,0,1,0,0,0,1,0.0625,0
35,0,0,1,0,0,0,0,0.125,0
36,2397.37,2890,1,0,0,0,0.0625,0.125,0
37,4697.79,4335,1,0,0,0,0.125,0.125,0
38,6809.67,5780,1,0,0,0,0.1875,0.125,0
39,8651.4,10115,1,0,0,0,0.25,0.125,0
40,10154.6,10982,1,0,0,0,0.3125,0.125,0
41,11266,11271,1,0,0,0,0.375,0.125,0
42,11947.7,13294,1,0,0,0,0.4375,0.125,0
43,12177.4,12427,1,0,0,0,0.5,0.125,0
44,11947.7,11849,1,0,0,0,0.5625,0.125,0
45,11266,9537,1,0,0,0,0.625,0.125,0
46,10154.6,8959,1,0,0,0,0.6875,0.125,0
47,8651.4,9537,1,0,0,0,0.75,0.125,0
48,6809.67,6647,1,0,0,0,0.8125,0.125,0
49,4697.79,5202,1,0,0,0,0.875,0.125,0
50,2397.37,1156,1,0,0,0,0.9375,0.125,0
51,0,0,1,0,0,0,1,0.125,0
52,0,0,1,0,0,0,0,0.1875,0
53,3730.56,3468,1,0,0,0,0.0625,0.1875,0
54,7308.36,5780,1,0,0,0,0.125,0.1875,0
55,10589.8,8959,1,0,0,0,0.1875,0.1875,0
56,13447.8,17629,1,0,0,0,0.25,0.1875,0
57,15777.4,15606,1,0,0,0,0.3125,0.1875,0
58,17497.5,15606,1,0,0,0,0.375,0.1875,0
59,18551.7,18207,1,0,0,0,0.4375,0.1875,0
60,18906.7,19363,1,0,0,0,0.5,0.1875,0
61,18551.7,16473,1,0,0,0,0.5625,0.1875,0
62,17497.5,17918,1,0,0,0,0.625,0.1875,0
63,15777.4,11849,1,0,0,0,0.6875,0.1875,0
64,13447.8,13872,1,0,0,0,0.75,0.1875,0
65,10589.8,9248,1,0,0,0,0.8125,0.1875,0
66,7308.36,5491,1,0,0,0,0.875,0.1875,0
67,3730.56,3757,1,0,0,0,0.9375,0.1875,0
68,0,0,1,0,0,0,1,0.1875,0
69,0,0,1,0,0,0,0,0.25,0
70,5233.04,4624,1,0,0,0,0.0625,0.25,0
71,10247.5,9537,1,0,0,0,0.125,0.25,0
72,14839.3,18496,1,0,0,0,0.1875,0.25,0
73,18830.6,19363,1,0,0,0,0.25,0.25,0
74,22076.7,22831,1,0,0,0,0.3125,0.25,0
75,24468.9,23409,1,0,0,0,0.375,0.25,0
76,25932.7,26010,1,0,0,0,0.4375,0.25,0
77,26425.3,22253,1,0,0,0,0.5,0.25,0
78,25932.7,23698,1,0,0,0,0.5625,0.25,0
79,24468.9,28033,1,0,0,0,0.625,0.25,0
80,22076.7,23120,1,0,0,0,0.6875,0.25,0
81,18830.6,20519,1,0,0,0,0.75,0.25,0
82,14839.3,12716,1,0,0,0,0.8125,0.25,0
83,10247.5,9537,1,0,0,0,0.875,0.25,0
84,5233.04,5491,1,0,0,0,0.9375,0.25,0
85,0,0,1,0,0,0,1,0.25,0
86,0,0,1,0,0,0,0,0.3125,0
87,6975.76,4913,1,0,0,0,0.0625,0.3125,0
88,13651.3,14161,1,0,0,0,0.125,0.3125,0
89,19749.4,18207,1,0,0,0,0.1875,0.3125,0
90,25033.3,23409,1,0,0,0,0.25,0.3125,0
91,29316.4,27455,1,0,0,0,0.3125,0.3125,0
92,32463.1,31212,1,0,0,0,0.375,0.3125,0
93,34384.2,33524,1,0,0,0,0.4375,0.3125,0
94,35029.8,36125,1,0,0,0,0.5,0.3125,0
95,34384.2,36414,1,0,0,0,0.5625,0.3125,0
96,32463.1,32946,1,0,0,0,0.625,0.3125,0
97,29316.4,28900,1,0,0,0,0.6875,0.3125,0
98,25033.3,23987,1,0,0,0,0.75,0.3125,0
99,19749.4,24854,1,0,0,0,0.8125,0.3125,0
100,13651.3,15317,1,0,0,0,0.875,0.3125,0
101,6975.76,10404,1,0,0,0,0.9375,0.3125,0
102,0,0,1,0,0,0,1,0.3125,0
103,0,0,1,0,0,0,0,0.375,0
104,9045.48,12138,1,0,0,0,0.0625,0.375,0
105,17684.2,16473,1,0,0,0,0.125,0.375,0
106,25546.5,29189,1,0,0,0,0.1875,0.375,0
107,32326.8,30345,1,0,0,0,0.25,0.375,0
108,37795.3,38726,1,0,0,0,0.3125,0.375,0
109,41794.7,40171,1,0,0,0,0.375,0.375,0
110,44227.9,45662,1,0,0,0,0.4375,0.375,0
111,45044.2,45662,1,0,0,0,0.5,0.375,0
112,44227.9,46818,1,0,0,0,0.5625,0.375,0
113,41794.7,38726,1,0,0,0,0.625,0.375,0
114,37795.3,40749,1,0,0,0,0.6875,0.375,0
115,32326.8,33813,1,0,0,0,0.75,0.375,0
116,25546.5,24565,1,0,0,0,0.8125,0.375,0
117,17684.2,18496,1,0,0,0,0.875,0.375,0
118,9045.48,8092,1,0,0,0,0.9375,0.375,0
119,0,0,1,0,0,0,1,0.375,0
120,0,0,1,0,0,0,0,0.4375,0
121,11554.4,10404,1,0,0,0,0.0625,0.4375,0
122,22555,24854,1,0,0,0,0.125,0.4375,0
123,32510.9,32079,1,0,0,0,0.1875,0.4375,0
124,41035.6,41327,1,0,0,0,0.25,0.4375,0
125,47859.6,44795,1,0,0,0,0.3125,0.4375,0
126,52817,59823,1,0,0,0,0.375,0.4375,0
127,55818,57511,1,0,0,0,0.4375,0.4375,0
128,56822.1,65892,1,0,0,0,0.5,0.4375,0
129,55818,54910,1,0,0,0,0.5625,0.4375,0
130,52817,55777,1,0,0,0,0.625,0.4375,0
131,47859.6,47974,1,0,0,0,0.6875,0.4375,0
132,41035.6,44506,1,0,0,0,0.75,0.4375,0
133,32510.9,34680,1,0,0,0,0.8125,0.4375,0
134,22555,23698,1,0,0,0,0.875,0.4375,0
135,11554.4,10115,1,0,0,0,0.9375,0.4375,0
136,0,0,1,0,0,0,1,0.4375,0
137,0,0,1,0,0,0,0,0.5,0
138,14656.5,13294,1,0,0,0,0.0625,0.5,0
139,28544.2,33813,1,0,0,0,0.125,0.5,0
140,41005.2,36992,1,0,0,0,0.1875,0.5,0
141,51560.5,53754,1,0,0,0,0.25,0.5,0
142,59916.6,59245,1,0,0,0,0.3125,0.5,0
143,65927.7,67048,1,0,0,0,0.375,0.5,0
144,69540.60000000001,70805,1,0,0,0,0.4375,0.5,0
145,70744.89999999999,69649,1,0,0,0,0.5,0.5,0
146,69540.60000000001,69071,1,0,0,0,0.5625,0.5,0
147,65927.7,59534,1,0,0,0,0.625,0.5,0
148,59916.6,67048,1,0,0,0,0.6875,0.5,0
149,51560.5,50864,1,0,0,0,0.75,0.5,0
150,41005.2,41905,1,0,0,0,0.8125,0.5,0
151,28544.2,26588,1,0,0,0,0.875,0.5,0
152,14656.5,13294,1,0,0,0,0.9375,0.5,0
153,0,0,1,0,0,0,1,0.5,0
154,0,0,1,0,0,0,0,0.5625,0
155,18578.8,15028,1,0,0,0,0.0625,0.5625,0
156,36050.9,43061,1,0,0,0,0.125,0.5625,0
157,51520.3,50575,1,0,0,0,0.1875,0.5625,0
158,64411.2,63291,1,0,0,0,0.25,0.5625,0
159,74449.8,71383,1,0,0,0,0.3125,0.5625,0
160,81570,81209,1,0,0,0,0.375,0.5625,0
161,85806.2,91613,1,0,0,0,0.4375,0.5625,0
162,87210.7,82365,1,0,0,0,0.5,0.5625,0
163,85806.2,88145,1,0,0,0,0.5625,0.5625,0
164,81570,83810,1,0,0,0,0.625,0.5625,0
165,74449.8,84966,1,0,0,0,0.6875,0.5625,0
166,64411.2,66181,1,0,0,0,0.75,0.5625,0
167,51520.3,56066,1,0,0,0,0.8125,0.5625,0
168,36050.9,34102,1,0,0,0,0.875,0.5625,0
169,18578.8,17051,1,0,0,0,0.9375,0.5625,0
170,0,0,1,0,0,0,1,0.5625,0
171,0,0,1,0,0,0,0,0.625,0
172,23681.9,20519,1,0,0,0,0.0625,0.625,0
173,45682.1,39304,1,0,0,0,0.125,0.625,0
174,64752.7,65025,1,0,0,0,0.1875,0.625,0
175,80250.89999999999,85544,1,0,0,0,0.25,0.625,0
176,92031.2,97393,1,0,0,0,0.3125,0.625,0
177,100221,86122,1,0,0,0,0.375,0.625,0
178,105027,105485,1,0,0,0,0.4375,0.625,0
179,106608,115022,1,0,0,0,0.5,0.625,0
180,105027,98838,1,0,0,0,0.5625,0.625,0
181,100221,103751,1,0,0,0,0.625,0.625,0
182,92031.2,102017,1,0,0,0,0.6875,0.625,0
183,80250.89999999999,77163,1,0,0,0,0.75,0.625,0
184,64752.7,68204,1,0,0,0,0.8125,0.625,0
185,45682.1,43928,1,0,0,0,0.875,0.625,0
186,23681.9,28611,1,0,0,0,0.9375,0.625,0
187,0,0,1,0,0,0,1,0.625,0
188,0,0,1,0,0,0,0,0.6875,0
189,30593.1,31212,1,0,0,0,0.0625,0.6875,0
190,58427.6,62424,1,0,0,0,0.125,0.6875,0
191,81732.8,91324,1,0,0,0,0.1875,0.6875,0
192,99950.8,102884,1,0,0,0,0.25,0.6875,0
193,113319,106641,1,0,0,0,0.3125,0.6875,0
194,122362,130339,1,0,0,0,0.375,0.6875,0
195,127571,125137,1,0,0,0,0.4375,0.6875,0
196,129270,138142,1,0,0,0,0.5,0.6875,0
197,127571,128316,1,0,0,0,0.5625,0.6875,0
198,122362,126871,1,0,0,0,0.625,0.6875,0
199,113319,115600,1,0,0,0,0.6875,0.6875,0
200,99950.8,98838,1,0,0,0,0.75,0.6875,0
201,81732.8,76296,1,0,0,0,0.8125,0.6875,0
202,58427.6,65025,1,0,0,0,0.875,0.6875,0
203,30593.1,31501,1,0,0,0,0.9375,0.6875,0
204,0,0,1,0,0,0,1,0.6875,0
205,0,0,1,0,0,0,0,0.75,0
206,40528.8,43928,1,0,0,0,0.0625,0.75,0
207,76022.8,78030,1,0,0,0,0.125,0.75,0
208,104025,108664,1,0,0,0,0.1875,0.75,0
209,124628,124848,1,0,0,0,0.25,0.75,0
210,139014,140454,1,0,0,0,0.3125,0.75,0
211,148403,141321,1,0,0,0,0.375,0.75,0
212,153692,156927,1,0,0,0,0.4375,0.75,0
213,155398,159817,1,0,0,0,0.5,0.75,0
214,153692,150858,1,0,0,0,0.5625,0.75,0
215,148403,144500,1,0,0,0,0.625,0.75,0
216,139014,152881,1,0,0,0,0.6875,0.75,0
217,124628,125137,1,0,0,0,0.75,0.75,0
218,104025,111265,1,0,0,0,0.8125,0.75,0
219,76022.8,72539,1,0,0,0,0.875,0.75,0
220,40528.8,35836,1,0,0,0,0.9375,0.75,0
221,0,0,1,0,0,0,1,0.75,0
222,0,0,1,0,0,0,0,0.8125,0
223,56204.5,60979,1,0,0,0,0.0625,0.8125,0
224,101724,107797,1,0,0,0,0.125,0.8125,0
225,133953,123981,1,0,0,0,0.1875,0.8125,0
226,155566,164441,1,0,0,0,0.25,0.8125,0
227,169707,169643,1,0,0,0,0.3125,0.8125,0
228,178557,182070,1,0,0,0,0.375,0.8125,0
229,183418,176579,1,0,0,0,0.4375,0.8125,0
230,184969,197387,1,0,0,0,0.5,0.8125,0
231,183418,185827,1,0,0,0,0.5625,0.8125,0
232,178557,174267,1,0,0,0,0.625,0.8125,0
233,169707,163285,1,0,0,0,0.6875,0.8125,0
234,155566,156927,1,0,0,0,0.75,0.8125,0
235,133953,143922,1,0,0,0,0.8125,0.8125,0
236,101724,104618,1,0,0,0,0.875,0.8125,0
237,56204.5,50575,1,0,0,0,0.9375,0.8125,0
238,0,0,1,0,0,0,1,0.8125,0
239,0,0,1,0,0,0,0,0.875,0
240,85005,81787,1,0,0,0,0.0625,0.875,0
241,141759,136408,1,0,0,0,0.125,0.875,0
242,174435,171377,1,0,0,0,0.1875,0.875,0
243,193794,187850,1,0,0,0,0.25,0.875,0
244,205578,194208,1,0,0,0,0.3125,0.875,0
245,212647,215305,1,0,0,0,0.375,0.875,0
246,216439,222530,1,0,0,0,0.4375,0.875,0
247,217636,225420,1,0,0,0,0.5,0.875,0
248,216439,200566,1,0,0,0,0.5625,0.875,0
249,212647,223397,1,0,0,0,0.625,0.875,0
250,205578,206057,1,0,0,0,0.6875,0.875,0
251,193794,205768,1,0,0,0,0.75,0.875,0
252,174435,176579,1,0,0,0,0.8125,0.875,0
253,141759,130339,1,0,0,0,0.875,0.875,0
254,85005,73117,1,0,0,0,0.9375,0.875,0
255,0,0,1,0,0,0,1,0.875,0
256,0,0,1,0,0,0,0,0.9375,0
257,153655,152881,1,0,0,0,0.0625,0.9375,0
258,204546,199410,1,0,0,0,0.125,0.9375,0
259,227180,227732,1,0,0,0,0.1875,0.9375,0
260,239108,252008,1,0,0,0,0.25,0.9375,0
261,245948,239581,1,0,0,0,0.3125,0.9375,0
262,249921,244205,1,0,0,0,0.375,0.9375,0
263,252016,247384,1,0,0,0,0.4375,0.9375,0
264,252672,248540,1,0,0,0,0.5,0.9375,0
265,252016,241604,1,0,0,0,0.5625,0.9375,0
266,249921,240159,1,0,0,0,0.625,0.9375,0
267,245948,245939,1,0,0,0,0.6875,0.9375,0
268,239108,235246,1,0,0,0,0.75,0.9375,0
269,227180,210681,1,0,0,0,0.8125,0.9375,0
270,204546,207502,1,0,0,0,0.875,0.9375,0
271,153655,162418,1,0,0,0,0.9375,0.9375,0
272,0,0,1,0,0,0,1,0.9375,0
273,289000,289000,1,0,0,0,0,1,0
274,289000,289000,1,0,0,0,0.0625,1,0
275,289000,289000,1,0,0,0,0.125,1,0
276,289000,289000,1,0,0,0,0.1875,1,0
277,289000,289000,1,0,0,0,0.25,1,0
278,289000,289000,1,0,0,0,0.3125,1,0
279,289000,289000,1,0,0,0,0.375,1,0
280,289000,289000,1,0,0,0,0.4375,1,0
281,289000,289000,1,0,0,0,0.5,1,0
282,289000,289000,1,0,0,0,0.5625,1,0
283,289000,289000,1,0,0,0,0.625,1,0
284,289000,289000,1,0,0,0,0.6875,1,0
285,289000,289000,1,0,0,0,0.75,1,0
286,289000,289000,1,0,0,0,0.8125,1,0
287,289000,289000,1,0,0,0,0.875,1,0
288,289000,289000,1,0,0,0,0.9375,1,0
289,289000,289000,1,0,0,0,1,1,0
