"id","C_[0]","Cd_[0]","type","v:0","v:1","v:2","Points:0","Points:1","Points:2"
1,0,0,1,0,0,0,0,0,0
2,0,0,1,0,0,0,0.0625,0,0
3,0,0,1,0,0,0,0.125,0,0
4,0,0,1,0,0,0,0.1875,0,0
5,0,0,1,0,0,0,0.25,0,0
6,0,0,1,0,0,0,0.3125,0,0
7,0,0,1,0,0,0,0.375,0,0
8,0,0,1,0,0,0,0.4375,0,0
9,0,0,1,0,0,0,0.5,0,0
10,0,0,1,0,0,0,0.5625,0,0
11,0,0,1,0,0,0,0.625,0,0
12,0,0,1,0,0,0,0.6875,0,0
13,0,0,1,0,0,0,0.75,0,0
14,0,0,1,0,0,0,0.8125,0,0
15,0,0,1,0,0,0,0.875,0,0
16,0,0,1,0,0,0,0.9375,0,0
17,0,0,1,0,0,0,1,0,0
18,0,0,1,0,0,0,0,0.0625,0
19,1230.78,867,1,0,0,0,0.0625,0.0625,0
20,2412.23,3179,1,0,0,0,0.125,0.0625,0
21,3497.59,3468,1,0,0,0,0.1875,0.0625,0
22,4444.96,6936,1,0,0,0,0.25,0.0625,0
23,5218.96,6069,1,0,0,0,0.3125,0.0625,0
24,5791.7,4046,1,0,0,0,0.375,0.0625,0
25,6143.27,6647,1,0,0,0,0.4375,0.0625,0
26,6261.77,7514,1,0,0,0,0.5,0.0625,0
27,6143.27,9248,1,0,0,0,0.5625,0.0625,0
28,5791.7,5202,1,0,0,0,0.625,0.0625,0
29,5218.96,4335,1,0,0,0,0.6875,0.0625,0
30,4444.96,3468,1,0,0,0,0.75,0.0625,0
31,3497.59,3468,1,0,0,0,0.8125,0.0625,0
32,2412.23,4913,1,0,0,0,0.875,0.0625,0
33,1230.78,1734,1,0,0,0,0.9375,0.0625,0
34,0,0,1,0,0,0,1,0.0625,0
35,0,0,1,0,0,0,0,0.125,0
36,2512.08,3468,1,0,0,0,0.0625,0.125,0
37,4922.79,4624,1,0,0,0,0.125,0.125,0
38,7136.32,6358,1,0,0,0,0.1875,0.125,0
39,9067.15,5491,1,0,0,0,0.25,0.125,0
40,10643.5,9248,1,0,0,0,0.3125,0.125,0
41,11809.2,9537,1,0,0,0,0.375,0.125,0
42,12524.4,10982,1,0,0,0,0.4375,0.125,0
43,12765.4,15317,1,0,0,0,0.5,0.125,0
44,12524.4,13583,1,0,0,0,0.5625,0.125,0
45,11809.2,17629,1,0,0,0,0.625,0.125,0
46,10643.5,8092,1,0,0,0,0.6875,0.125,0
47,9067.15,7225,1,0,0,0,0.75,0.125,0
48,7136.32,7225,1,0,0,0,0.8125,0.125,0
49,4922.79,4913,1,0,0,0,0.875,0.125,0
50,2512.08,1156,1,0,0,0,0.9375,0.125,0
51,0,0,1,0,0,0,1,0.125,0
52,0,0,1,0,0,0,0,0.1875,0
53,3897.14,3757,1,0,0,0,0.0625,0.1875,0
54,7635.12,7514,1,0,0,0,0.125,0.1875,0
55,11064.1,10404,1,0,0,0,0.1875,0.1875,0
56,14051.6,15028,1,0,0,0,0.25,0.1875,0
57,16487.3,14450,1,0,0,0,0.3125,0.1875,0
58,18286.4,17629,1,0,0,0,0.375,0.1875,0
59,19389.1,21964,1,0,0,0,0.4375,0.1875,0
60,19760.6,21097,1,0,0,0,0.5,0.1875,0
61,19389.1,21097,1,0,0,0,0.5625,0.1875,0
62,18286.4,19074,1,0,0,0,0.625,0.1875,0
63,16487.3,16473,1,0,0,0,0.6875,0.1875,0
64,14051.6,18785,1,0,0,0,0.75,0.1875,0
65,11064.1,13872,1,0,0,0,0.8125,0.1875,0
66,7635.12,8381,1,0,0,0,0.875,0.1875,0
67,3897.14,4335,1,0,0,0,0.9375,0.1875,0
68,0,0,1,0,0,0,1,0.1875,0
69,0,0,1,0,0,0,0,0.25,0
70,5445.15,6647,1,0,0,0,0.0625,0.25,0
71,10663.6,9537,1,0,0,0,0.125,0.25,0
72,15443.4,15317,1,0,0,0,0.1875,0.25,0
73,19599.4,19652,1,0,0,0,0.25,0.25,0
74,22980.7,23698,1,0,0,0,0.3125,0.25,0
75,25473.4,30056,1,0,0,0,0.375,0.25,0
76,26999,27744,1,0,0,0,0.4375,0.25,0
77,27512.5,24276,1,0,0,0,0.5,0.25,0
78,26999,30634,1,0,0,0,0.5625,0.25,0
79,25473.4,21097,1,0,0,0,0.625,0.25,0
80,22980.7,22542,1,0,0,0,0.6875,0.25,0
81,19599.4,21386,1,0,0,0,0.75,0.25,0
82,15443.4,12427,1,0,0,0,0.8125,0.25,0
83,10663.6,9248,1,0,0,0,0.875,0.25,0
84,5445.15,5202,1,0,0,0,0.9375,0.25,0
85,0,0,1,0,0,0,1,0.25,0
86,0,0,1,0,0,0,0,0.3125,0
87,7225.31,9537,1,0,0,0,0.0625,0.3125,0
88,14140.8,14739,1,0,0,0,0.125,0.3125,0
89,20460,19363,1,0,0,0,0.1875,0.3125,0
90,25937.8,23409,1,0,0,0,0.25,0.3125,0
91,30380,33235,1,0,0,0,0.3125,0.3125,0
92,33645,32368,1,0,0,0,0.375,0.3125,0
93,35638.8,35836,1,0,0,0,0.4375,0.3125,0
94,36309,39882,1,0,0,0,0.5,0.3125,0
95,35638.8,30345,1,0,0,0,0.5625,0.3125,0
96,33645,32657,1,0,0,0,0.625,0.3125,0
97,30380,28322,1,0,0,0,0.6875,0.3125,0
98,25937.8,24565,1,0,0,0,0.75,0.3125,0
99,20460,19363,1,0,0,0,0.8125,0.3125,0
100,14140.8,14161,1,0,0,0,0.875,0.3125,0
101,7225.31,6936,1,0,0,0,0.9375,0.3125,0
102,0,0,1,0,0,0,1,0.3125,0
103,0,0,1,0,0,0,0,0.375,0
104,9322.950000000001,7803,1,0,0,0,0.0625,0.375,0
105,18228.5,17629,1,0,0,0,0.125,0.375,0
106,26336.6,21964,1,0,0,0,0.1875,0.375,0
107,33332.5,28611,1,0,0,0,0.25,0.375,0
108,38977.9,43928,1,0,0,0,0.3125,0.375,0
109,43108.7,45084,1,0,0,0,0.375,0.375,0
110,45622.9,43061,1,0,0,0,0.4375,0.375,0
111,46466.5,44795,1,0,0,0,0.5,0.375,0
112,45622.9,45373,1,0,0,0,0.5625,0.375,0
113,43108.7,50864,1,0,0,0,0.625,0.375,0
114,38977.9,42772,1,0,0,0,0.6875,0.375,0
115,33332.5,35547,1,0,0,0,0.75,0.375,0
116,26336.6,23120,1,0,0,0,0.8125,0.375,0
117,18228.5,18207,1,0,0,0,0.875,0.375,0
118,9322.950000000001,8670,1,0,0,0,0.9375,0.375,0
119,0,0,1,0,0,0,1,0.375,0
120,0,0,1,0,0,0,0,0.4375,0
121,11849.1,12427,1,0,0,0,0.0625,0.4375,0
122,23133.2,22542,1,0,0,0,0.125,0.4375,0
123,33350.3,37281,1,0,0,0,0.1875,0.4375,0
124,42104,42772,1,0,0,0,0.25,0.4375,0
125,49115.9,49708,1,0,0,0,0.3125,0.4375,0
126,54212.8,57800,1,0,0,0,0.375,0.4375,0
127,57299.8,60690,1,0,0,0,0.4375,0.4375,0
128,58333,52887,1,0,0,0,0.5,0.4375,0
129,57299.8,50864,1,0,0,0,0.5625,0.4375,0
130,54212.8,52887,1,0,0,0,0.625,0.4375,0
131,49115.9,47107,1,0,0,0,0.6875,0.4375,0
132,42104,45084,1,0,0,0,0.75,0.4375,0
133,33350.3,33813,1,0,0,0,0.8125,0.4375,0
134,23133.2,21386,1,0,0,0,0.875,0.4375,0
135,11849.1,10404,1,0,0,0,0.9375,0.4375,0
136,0,0,1,0,0,0,1,0.4375,0
137,0,0,1,0,0,0,0,0.5,0
138,14957.3,15028,1,0,0,0,0.0625,0.5,0
139,29134.1,23698,1,0,0,0,0.125,0.5,0
140,41861.7,47974,1,0,0,0,0.1875,0.5,0
141,52650.6,55199,1,0,0,0,0.25,0.5,0
142,61198.4,59534,1,0,0,0,0.3125,0.5,0
143,67352,63002,1,0,0,0,0.375,0.5,0
144,71052.60000000001,73406,1,0,0,0,0.4375,0.5,0
145,72286.39999999999,73695,1,0,0,0,0.5,0.5,0
146,71052.60000000001,74562,1,0,0,0,0.5625,0.5,0
147,67352,68493,1,0,0,0,0.625,0.5,0
148,61198.4,62713,1,0,0,0,0.6875,0.5,0
149,52650.6,59823,1,0,0,0,0.75,0.5,0
150,41861.7,44217,1,0,0,0,0.8125,0.5,0
151,29134.1,26877,1,0,0,0,0.875,0.5,0
152,14957.3,13294,1,0,0,0,0.9375,0.5,0
153,0,0,1,0,0,0,1,0.5,0
154,0,0,1,0,0,0,0,0.5625,0
155,18874,22542,1,0,0,0,0.0625,0.5625,0
156,36629.9,35258,1,0,0,0,0.125,0.5625,0
157,52360.9,47396,1,0,0,0,0.1875,0.5625,0
158,65481.1,75429,1,0,0,0,0.25,0.5625,0
159,75707.8,84388,1,0,0,0,0.3125,0.5625,0
160,82967.8,86989,1,0,0,0,0.375,0.5625,0
161,87290.10000000001,84388,1,0,0,0,0.4375,0.5625,0
162,88723.7,84966,1,0,0,0,0.5,0.5625,0
163,87290.10000000001,86122,1,0,0,0,0.5625,0.5625,0
164,82967.8,77452,1,0,0,0,0.625,0.5625,0
165,75707.8,78608,1,0,0,0,0.6875,0.5625,0
166,65481.1,73406,1,0,0,0,0.75,0.5625,0
167,52360.9,56644,1,0,0,0,0.8125,0.5625,0
168,36629.9,31790,1,0,0,0,0.875,0.5625,0
169,18874,16473,1,0,0,0,0.9375,0.5625,0
170,0,0,1,0,0,0,1,0.5625,0
171,0,0,1,0,0,0,0,0.625,0
172,23960.1,22542,1,0,0,0,0.0625,0.625,0
173,46227.9,43928,1,0,0,0,0.125,0.625,0
174,65545.10000000001,71961,1,0,0,0,0.1875,0.625,0
175,81259.39999999999,79186,1,0,0,0,0.25,0.625,0
176,93217,92191,1,0,0,0,0.3125,0.625,0
177,101539,108664,1,0,0,0,0.375,0.625,0
178,106425,99127,1,0,0,0,0.4375,0.625,0
179,108035,108375,1,0,0,0,0.5,0.625,0
180,106425,106930,1,0,0,0,0.5625,0.625,0
181,101539,99416,1,0,0,0,0.625,0.625,0
182,93217,88434,1,0,0,0,0.6875,0.625,0
183,81259.39999999999,83810,1,0,0,0,0.75,0.625,0
184,65545.10000000001,74273,1,0,0,0,0.8125,0.625,0
185,46227.9,45951,1,0,0,0,0.875,0.625,0
186,23960.1,25432,1,0,0,0,0.9375,0.625,0
187,0,0,1,0,0,0,1,0.625,0
188,0,0,1,0,0,0,0,0.6875,0
189,30843.7,30056,1,0,0,0,0.0625,0.6875,0
190,58919.1,61268,1,0,0,0,0.125,0.6875,0
191,82446.39999999999,82365,1,0,0,0,0.1875,0.6875,0
192,100859,95081,1,0,0,0,0.25,0.6875,0
193,114387,107508,1,0,0,0,0.3125,0.6875,0
194,123549,119068,1,0,0,0,0.375,0.6875,0
195,128831,133229,1,0,0,0,0.4375,0.6875,0
196,130555,128316,1,0,0,0,0.5,0.6875,0
197,128831,124848,1,0,0,0,0.5625,0.6875,0
198,123549,127449,1,0,0,0,0.625,0.6875,0
199,114387,123403,1,0,0,0,0.6875,0.6875,0
200,100859,98838,1,0,0,0,0.75,0.6875,0
201,82446.39999999999,81787,1,0,0,0,0.8125,0.6875,0
202,58919.1,61557,1,0,0,0,0.875,0.6875,0
203,30843.7,31790,1,0,0,0,0.9375,0.6875,0
204,0,0,1,0,0,0,1,0.6875,0
205,0,0,1,0,0,0,0,0.75,0
206,40742,45084,1,0,0,0,0.0625,0.75,0
207,76441.10000000001,83232,1,0,0,0,0.125,0.75,0
208,104632,107797,1,0,0,0,0.1875,0.75,0
209,125400,131206,1,0,0,0,0.25,0.75,0
210,139922,143922,1,0,0,0,0.3125,0.75,0
211,149413,156349,1,0,0,0,0.375,0.75,0
212,154764,144211,1,0,0,0,0.4375,0.75,0
213,156491,154904,1,0,0,0,0.5,0.75,0
214,154764,157216,1,0,0,0,0.5625,0.75,0
215,149413,141899,1,0,0,0,0.625,0.75,0
216,139922,134674,1,0,0,0,0.6875,0.75,0
217,125400,121380,1,0,0,0,0.75,0.75,0
218,104632,109531,1,0,0,0,0.8125,0.75,0
219,76441.10000000001,84099,1,0,0,0,0.875,0.75,0
220,40742,36992,1,0,0,0,0.9375,0.75,0
221,0,0,1,0,0,0,1,0.75,0
222,0,0,1,0,0,0,0,0.8125,0
223,56372.1,52309,1,0,0,0,0.0625,0.8125,0
224,102052,107219,1,0,0,0,0.125,0.8125,0
225,134430,132651,1,0,0,0,0.1875,0.8125,0
226,156173,148257,1,0,0,0,0.25,0.8125,0
227,170422,172533,1,0,0,0,0.3125,0.8125,0
228,179351,167331,1,0,0,0,0.375,0.8125,0
229,184261,196231,1,0,0,0,0.4375,0.8125,0
230,185828,181492,1,0,0,0,0.5,0.8125,0
231,184261,182359,1,0,0,0,0.5625,0.8125,0
232,179351,183515,1,0,0,0,0.625,0.8125,0
233,170422,175712,1,0,0,0,0.6875,0.8125,0
234,156173,152881,1,0,0,0,0.75,0.8125,0
235,134430,136119,1,0,0,0,0.8125,0.8125,0
236,102052,103173,1,0,0,0,0.875,0.8125,0
237,56372.1,59245,1,0,0,0,0.9375,0.8125,0
238,0,0,1,0,0,0,1,0.8125,0
239,0,0,1,0,0,0,0,0.875,0
240,85120.39999999999,82365,1,0,0,0,0.0625,0.875,0
241,141985,141032,1,0,0,0,0.125,0.875,0
242,174763,169932,1,0,0,0,0.1875,0.875,0
243,194213,195075,1,0,0,0,0.25,0.875,0
244,206070,206924,1,0,0,0,0.3125,0.875,0
245,213194,213860,1,0,0,0,0.375,0.875,0
246,217019,204323,1,0,0,0,0.4375,0.875,0
247,218228,216750,1,0,0,0,0.5,0.875,0
248,217019,220507,1,0,0,0,0.5625,0.875,0
249,213194,219351,1,0,0,0,0.625,0.875,0
250,206070,197965,1,0,0,0,0.6875,0.875,0
251,194213,199121,1,0,0,0,0.75,0.875,0
252,174763,171666,1,0,0,0,0.8125,0.875,0
253,141985,147390,1,0,0,0,0.875,0.875,0
254,85120.39999999999,86122,1,0,0,0,0.9375,0.875,0
255,0,0,1,0,0,0,1,0.875,0
256,0,0,1,0,0,0,0,0.9375,0
257,153714,166175,1,0,0,0,0.0625,0.9375,0
258,204662,196520,1,0,0,0,0.125,0.9375,0
259,227348,216172,1,0,0,0,0.1875,0.9375,0
260,239322,245939,1,0,0,0,0.25,0.9375,0
261,246199,246517,1,0,0,0,0.3125,0.9375,0
262,250200,266169,1,0,0,0,0.375,0.9375,0
263,252312,260389,1,0,0,0,0.4375,0.9375,0
264,252974,264435,1,0,0,0,0.5,0.9375,0
265,252312,252875,1,0,0,0,0.5625,0.9375,0
266,250200,234090,1,0,0,0,0.625,0.9375,0
267,246199,253453,1,0,0,0,0.6875,0.9375,0
268,239322,244783,1,0,0,0,0.75,0.9375,0
269,227348,235535,1,0,0,0,0.8125,0.9375,0
270,204662,225420,1,0,0,0,0.875,0.9375,0
271,153714,157216,1,0,0,0,0.9375,0.9375,0
272,0,0,1,0,0,0,1,0.9375,0
273,289000,289000,1,0,0,0,0,1,0
274,289000,289000,1,0,0,0,0.0625,1,0
275,289000,289000,1,0,0,0,0.125,1,0
276,289000,289000,1,0,0,0,0.1875,1,0
277,289000,289000,1,0,0,0,0.25,1,0
278,289000,289000,1,0,0,0,0.3125,1,0
279,289000,289000,1,0,0,0,0.375,1,0
280,289000,289000,1,0,0,0,0.4375,1,0
281,289000,289000,1,0,0,0,0.5,1,0
282,289000,289000,1,0,0,0,0.5625,1,0
283,289000,289000,1,0,0,0,0.625,1,0
284,289000,289000,1,0,0,0,0.6875,1,0
285,289000,289000,1,0,0,0,0.75,1,0
286,289000,289000,1,0,0,0,0.8125,1,0
287,289000,289000,1,0,0,0,0.875,1,0
288,289000,289000,1,0,0,0,0.9375,1,0
289,289000,289000,1,0,0,0,1,1,0
