"id","C_[0]","Cd_[0]","type","v:0","v:1","v:2","Points:0","Points:1","Points:2"
1,0,0,1,0,0,0,0,0,0
2,0,0,1,0,0,0,0.0625,0,0
3,0,0,1,0,0,0,0.125,0,0
4,0,0,1,0,0,0,0.1875,0,0
5,0,0,1,0,0,0,0.25,0,0
6,0,0,1,0,0,0,0.3125,0,0
7,0,0,1,0,0,0,0.375,0,0
8,0,0,1,0,0,0,0.4375,0,0
9,0,0,1,0,0,0,0.5,0,0
10,0,0,1,0,0,0,0.5625,0,0
11,0,0,1,0,0,0,0.625,0,0
12,0,0,1,0,0,0,0.6875,0,0
13,0,0,1,0,0,0,0.75,0,0
14,0,0,1,0,0,0,0.8125,0,0
15,0,0,1,0,0,0,0.875,0,0
16,0,0,1,0,0,0,0.9375,0,0
17,0,0,1,0,0,0,1,0,0
18,0,0,1,0,0,0,0,0.0625,0
19,1211.11,1445,1,0,0,0,0.0625,0.0625,0
20,2373.64,2601,1,0,0,0,0.125,0.0625,0
21,3441.57,3757,1,0,0,0,0.1875,0.0625,0
22,4373.67,4913,1,0,0,0,0.25,0.0625,0
23,5135.12,6936,1,0,0,0,0.3125,0.0625,0
24,5698.55,5780,1,0,0,0,0.375,0.0625,0
25,6044.38,6936,1,0,0,0,0.4375,0.0625,0
26,6160.95,4913,1,0,0,0,0.5,0.0625,0
27,6044.38,6069,1,0,0,0,0.5625,0.0625,0
28,5698.55,6358,1,0,0,0,0.625,0.0625,0
29,5135.12,6358,1,0,0,0,0.6875,0.0625,0
30,4373.67,5780,1,0,0,0,0.75,0.0625,0
31,3441.57,1445,1,0,0,0,0.8125,0.0625,0
32,2373.64,1445,1,0,0,0,0.875,0.0625,0
33,1211.11,1156,1,0,0,0,0.9375,0.0625,0
34,0,0,1,0,0,0,1,0.0625,0
35,0,0,1,0,0,0,0,0.125,0
36,2473.49,2890,1,0,0,0,0.0625,0.125,0
37,4847.1,4335,1,0,0,0,0.125,0.125,0
38,7026.43,6358,1,0,0,0,0.1875,0.125,0
39,8927.290000000001,11271,1,0,0,0,0.25,0.125,0
40,10479,11560,1,0,0,0,0.3125,0.125,0
41,11626.5,12138,1,0,0,0,0.375,0.125,0
42,12330.4,11849,1,0,0,0,0.4375,0.125,0
43,12567.6,8670,1,0,0,0,0.5,0.125,0
44,12330.4,13005,1,0,0,0,0.5625,0.125,0
45,11626.5,10693,1,0,0,0,0.625,0.125,0
46,10479,11849,1,0,0,0,0.6875,0.125,0
47,8927.290000000001,8381,1,0,0,0,0.75,0.125,0
48,7026.43,8092,1,0,0,0,0.8125,0.125,0
49,4847.1,5202,1,0,0,0,0.875,0.125,0
50,2473.49,1734,1,0,0,0,0.9375,0.125,0
51,0,0,1,0,0,0,1,0.125,0
52,0,0,1,0,0,0,0,0.1875,0
53,3841.12,3468,1,0,0,0,0.0625,0.1875,0
54,7525.23,6647,1,0,0,0,0.125,0.1875,0
55,10904.6,12716,1,0,0,0,0.1875,0.1875,0
56,13848.5,10693,1,0,0,0,0.25,0.1875,0
57,16248.5,21675,1,0,0,0,0.3125,0.1875,0
58,18021.1,17629,1,0,0,0,0.375,0.1875,0
59,19107.5,18207,1,0,0,0,0.4375,0.1875,0
60,19473.4,20519,1,0,0,0,0.5,0.1875,0
61,19107.5,19652,1,0,0,0,0.5625,0.1875,0
62,18021.1,16184,1,0,0,0,0.625,0.1875,0
63,16248.5,18496,1,0,0,0,0.6875,0.1875,0
64,13848.5,12138,1,0,0,0,0.75,0.1875,0
65,10904.6,11271,1,0,0,0,0.8125,0.1875,0
66,7525.23,7803,1,0,0,0,0.875,0.1875,0
67,3841.12,6358,1,0,0,0,0.9375,0.1875,0
68,0,0,1,0,0,0,1,0.1875,0
69,0,0,1,0,0,0,0,0.25,0
70,5373.83,5491,1,0,0,0,0.0625,0.25,0
71,10523.7,9248,1,0,0,0,0.125,0.25,0
72,15240.3,13872,1,0,0,0,0.1875,0.25,0
73,19340.9,21675,1,0,0,0,0.25,0.25,0
74,22676.8,22253,1,0,0,0,0.3125,0.25,0
75,25135.7,26010,1,0,0,0,0.375,0.25,0
76,26640.5,26877,1,0,0,0,0.4375,0.25,0
77,27147,32368,1,0,0,0,0.5,0.25,0
78,26640.5,25721,1,0,0,0,0.5625,0.25,0
79,25135.7,23987,1,0,0,0,0.625,0.25,0
80,22676.8,23409,1,0,0,0,0.6875,0.25,0
81,19340.9,15028,1,0,0,0,0.75,0.25,0
82,15240.3,16762,1,0,0,0,0.8125,0.25,0
83,10523.7,11849,1,0,0,0,0.875,0.25,0
84,5373.83,6647,1,0,0,0,0.9375,0.25,0
85,0,0,1,0,0,0,1,0.25,0
86,0,0,1,0,0,0,0,0.3125,0
87,7141.44,6647,1,0,0,0,0.0625,0.3125,0
88,13976.3,17918,1,0,0,0,0.125,0.3125,0
89,20221.2,17340,1,0,0,0,0.1875,0.3125,0
90,25633.8,27744,1,0,0,0,0.25,0.3125,0
91,30022.5,34680,1,0,0,0,0.3125,0.3125,0
92,33247.7,33524,1,0,0,0,0.375,0.3125,0
93,35217.1,41038,1,0,0,0,0.4375,0.3125,0
94,35879.1,41038,1,0,0,0,0.5,0.3125,0
95,35217.1,38148,1,0,0,0,0.5625,0.3125,0
96,33247.7,35258,1,0,0,0,0.625,0.3125,0
97,30022.5,29189,1,0,0,0,0.6875,0.3125,0
98,25633.8,28611,1,0,0,0,0.75,0.3125,0
99,20221.2,23987,1,0,0,0,0.8125,0.3125,0
100,13976.3,13872,1,0,0,0,0.875,0.3125,0
101,7141.44,8381,1,0,0,0,0.9375,0.3125,0
102,0,0,1,0,0,0,1,0.3125,0
103,0,0,1,0,0,0,0,0.375,0
104,9229.73,9248,1,0,0,0,0.0625,0.375,0
105,18045.6,20230,1,0,0,0,0.125,0.375,0
106,26071.2,21675,1,0,0,0,0.1875,0.375,0
107,32994.6,30634,1,0,0,0,0.25,0.375,0
108,38580.6,36414,1,0,0,0,0.3125,0.375,0
109,42667.2,48552,1,0,0,0,0.375,0.375,0
110,45154.2,44217,1,0,0,0,0.4375,0.375,0
111,45988.7,41616,1,0,0,0,0.5,0.375,0
112,45154.2,49419,1,0,0,0,0.5625,0.375,0
113,42667.2,43061,1,0,0,0,0.625,0.375,0
114,38580.6,42483,1,0,0,0,0.6875,0.375,0
115,32994.6,31790,1,0,0,0,0.75,0.375,0
116,26071.2,27166,1,0,0,0,0.8125,0.375,0
117,18045.6,17340,1,0,0,0,0.875,0.375,0
118,9229.73,7225,1,0,0,0,0.9375,0.375,0
119,0,0,1,0,0,0,1,0.375,0
120,0,0,1,0,0,0,0,0.4375,0
121,11750.1,14161,1,0,0,0,0.0625,0.4375,0
122,22939.1,22831,1,0,0,0,0.125,0.4375,0
123,33068.4,35547,1,0,0,0,0.1875,0.4375,0
124,41745.2,38726,1,0,0,0,0.25,0.4375,0
125,48694,47974,1,0,0,0,0.3125,0.4375,0
126,53744.1,54332,1,0,0,0,0.375,0.4375,0
127,56802.2,49997,1,0,0,0,0.4375,0.4375,0
128,57825.6,56933,1,0,0,0,0.5,0.4375,0
129,56802.2,55777,1,0,0,0,0.5625,0.4375,0
130,53744.1,48841,1,0,0,0,0.625,0.4375,0
131,48694,51731,1,0,0,0,0.6875,0.4375,0
132,41745.2,38726,1,0,0,0,0.75,0.4375,0
133,33068.4,34969,1,0,0,0,0.8125,0.4375,0
134,22939.1,19363,1,0,0,0,0.875,0.4375,0
135,11750.1,11271,1,0,0,0,0.9375,0.4375,0
136,0,0,1,0,0,0,1,0.4375,0
137,0,0,1,0,0,0,0,0.5,0
138,14856.3,13005,1,0,0,0,0.0625,0.5,0
139,28936.1,35258,1,0,0,0,0.125,0.5,0
140,41574.2,39882,1,0,0,0,0.1875,0.5,0
141,52284.7,51442,1,0,0,0,0.25,0.5,0
142,60768.2,66181,1,0,0,0,0.3125,0.5,0
143,66873.89999999999,74273,1,0,0,0,0.375,0.5,0
144,70545.10000000001,76007,1,0,0,0,0.4375,0.5,0
145,71769,68493,1,0,0,0,0.5,0.5,0
146,70545.10000000001,66759,1,0,0,0,0.5625,0.5,0
147,66873.89999999999,71961,1,0,0,0,0.625,0.5,0
148,60768.2,67048,1,0,0,0,0.6875,0.5,0
149,52284.7,51153,1,0,0,0,0.75,0.5,0
150,41574.2,40460,1,0,0,0,0.8125,0.5,0
151,28936.1,31501,1,0,0,0,0.875,0.5,0
152,14856.3,14161,1,0,0,0,0.9375,0.5,0
153,0,0,1,0,0,0,1,0.5,0
154,0,0,1,0,0,0,0,0.5625,0
155,18775,15317,1,0,0,0,0.0625,0.5625,0
156,36435.6,35547,1,0,0,0,0.125,0.5625,0
157,52078.9,51153,1,0,0,0,0.1875,0.5625,0
158,65122.2,61268,1,0,0,0,0.25,0.5625,0
159,75285.8,80053,1,0,0,0,0.3125,0.5625,0
160,82498.89999999999,86989,1,0,0,0,0.375,0.5625,0
161,86792.3,96815,1,0,0,0,0.4375,0.5625,0
162,88216.2,88145,1,0,0,0,0.5,0.5625,0
163,86792.3,82365,1,0,0,0,0.5625,0.5625,0
164,82498.89999999999,82654,1,0,0,0,0.625,0.5625,0
165,75285.8,73406,1,0,0,0,0.6875,0.5625,0
166,65122.2,62713,1,0,0,0,0.75,0.5625,0
167,52078.9,47107,1,0,0,0,0.8125,0.5625,0
168,36435.6,32368,1,0,0,0,0.875,0.5625,0
169,18775,17918,1,0,0,0,0.9375,0.5625,0
170,0,0,1,0,0,0,1,0.5625,0
171,0,0,1,0,0,0,0,0.625,0
172,23866.8,22253,1,0,0,0,0.0625,0.625,0
173,46044.9,48263,1,0,0,0,0.125,0.625,0
174,65279.4,65314,1,0,0,0,0.1875,0.625,0
175,80921.2,82365,1,0,0,0,0.25,0.625,0
176,92819.39999999999,82654,1,0,0,0,0.3125,0.625,0
177,101097,97971,1,0,0,0,0.375,0.625,0
178,105956,110976,1,0,0,0,0.4375,0.625,0
179,107556,107508,1,0,0,0,0.5,0.625,0
180,105956,110398,1,0,0,0,0.5625,0.625,0
181,101097,102595,1,0,0,0,0.625,0.625,0
182,92819.39999999999,91035,1,0,0,0,0.6875,0.625,0
183,80921.2,81498,1,0,0,0,0.75,0.625,0
184,65279.4,67337,1,0,0,0,0.8125,0.625,0
185,46044.9,44506,1,0,0,0,0.875,0.625,0
186,23866.8,21097,1,0,0,0,0.9375,0.625,0
187,0,0,1,0,0,0,1,0.625,0
188,0,0,1,0,0,0,0,0.6875,0
189,30759.7,34102,1,0,0,0,0.0625,0.6875,0
190,58754.4,59823,1,0,0,0,0.125,0.6875,0
191,82207.2,78897,1,0,0,0,0.1875,0.6875,0
192,100555,101728,1,0,0,0,0.25,0.6875,0
193,114029,128316,1,0,0,0,0.3125,0.6875,0
194,123151,124559,1,0,0,0,0.375,0.6875,0
195,128409,122536,1,0,0,0,0.4375,0.6875,0
196,130124,130628,1,0,0,0,0.5,0.6875,0
197,128409,135541,1,0,0,0,0.5625,0.6875,0
198,123151,123403,1,0,0,0,0.625,0.6875,0
199,114029,114155,1,0,0,0,0.6875,0.6875,0
200,100555,105485,1,0,0,0,0.75,0.6875,0
201,82207.2,84677,1,0,0,0,0.8125,0.6875,0
202,58754.4,61268,1,0,0,0,0.875,0.6875,0
203,30759.7,27744,1,0,0,0,0.9375,0.6875,0
204,0,0,1,0,0,0,1,0.6875,0
205,0,0,1,0,0,0,0,0.75,0
206,40670.5,36125,1,0,0,0,0.0625,0.75,0
207,76300.89999999999,67915,1,0,0,0,0.125,0.75,0
208,104428,106063,1,0,0,0,0.1875,0.75,0
209,125141,121958,1,0,0,0,0.25,0.75,0
210,139618,142766,1,0,0,0,0.3125,0.75,0
211,149075,147390,1,0,0,0,0.375,0.75,0
212,154405,155482,1,0,0,0,0.4375,0.75,0
213,156125,164730,1,0,0,0,0.5,0.75,0
214,154405,156927,1,0,0,0,0.5625,0.75,0
215,149075,137853,1,0,0,0,0.625,0.75,0
216,139618,128894,1,0,0,0,0.6875,0.75,0
217,125141,126004,1,0,0,0,0.75,0.75,0
218,104428,100861,1,0,0,0,0.8125,0.75,0
219,76300.89999999999,76585,1,0,0,0,0.875,0.75,0
220,40670.5,38726,1,0,0,0,0.9375,0.75,0
221,0,0,1,0,0,0,1,0.75,0
222,0,0,1,0,0,0,0,0.8125,0
223,56316,54332,1,0,0,0,0.0625,0.8125,0
224,101942,102306,1,0,0,0,0.125,0.8125,0
225,134271,139298,1,0,0,0,0.1875,0.8125,0
226,155970,144500,1,0,0,0,0.25,0.8125,0
227,170182,172822,1,0,0,0,0.3125,0.8125,0
228,179085,193052,1,0,0,0,0.375,0.8125,0
229,183979,184382,1,0,0,0,0.4375,0.8125,0
230,185540,169932,1,0,0,0,0.5,0.8125,0
231,183979,181203,1,0,0,0,0.5625,0.8125,0
232,179085,178024,1,0,0,0,0.625,0.8125,0
233,170182,172822,1,0,0,0,0.6875,0.8125,0
234,155970,159817,1,0,0,0,0.75,0.8125,0
235,134271,128316,1,0,0,0,0.8125,0.8125,0
236,101942,95948,1,0,0,0,0.875,0.8125,0
237,56316,56355,1,0,0,0,0.9375,0.8125,0
238,0,0,1,0,0,0,1,0.8125,0
239,0,0,1,0,0,0,0,0.875,0
240,85081.8,91035,1,0,0,0,0.0625,0.875,0
241,141909,139009,1,0,0,0,0.125,0.875,0
242,174653,179758,1,0,0,0,0.1875,0.875,0
243,194073,196231,1,0,0,0,0.25,0.875,0
244,205905,213571,1,0,0,0,0.3125,0.875,0
245,213010,212415,1,0,0,0,0.375,0.875,0
246,216825,221085,1,0,0,0,0.4375,0.875,0
247,218029,220218,1,0,0,0,0.5,0.875,0
248,216825,214727,1,0,0,0,0.5625,0.875,0
249,213010,204323,1,0,0,0,0.625,0.875,0
250,205905,211548,1,0,0,0,0.6875,0.875,0
251,194073,180047,1,0,0,0,0.75,0.875,0
252,174653,174267,1,0,0,0,0.8125,0.875,0
253,141909,145367,1,0,0,0,0.875,0.875,0
254,85081.8,78608,1,0,0,0,0.9375,0.875,0
255,0,0,1,0,0,0,1,0.875,0
256,0,0,1,0,0,0,0,0.9375,0
257,153694,143633,1,0,0,0,0.0625,0.9375,0
258,204623,201433,1,0,0,0,0.125,0.9375,0
259,227292,217039,1,0,0,0,0.1875,0.9375,0
260,239250,230911,1,0,0,0,0.25,0.9375,0
261,246115,253453,1,0,0,0,0.3125,0.9375,0
262,250106,253742,1,0,0,0,0.375,0.9375,0
263,252213,246806,1,0,0,0,0.4375,0.9375,0
264,252873,260389,1,0,0,0,0.5,0.9375,0
265,252213,257210,1,0,0,0,0.5625,0.9375,0
266,250106,242760,1,0,0,0,0.625,0.9375,0
267,246115,252875,1,0,0,0,0.6875,0.9375,0
268,239250,248540,1,0,0,0,0.75,0.9375,0
269,227292,223686,1,0,0,0,0.8125,0.9375,0
270,204623,202589,1,0,0,0,0.875,0.9375,0
271,153694,142477,1,0,0,0,0.9375,0.9375,0
272,0,0,1,0,0,0,1,0.9375,0
273,289000,289000,1,0,0,0,0,1,0
274,289000,289000,1,0,0,0,0.0625,1,0
275,289000,289000,1,0,0,0,0.125,1,0
276,289000,289000,1,0,0,0,0.1875,1,0
277,289000,289000,1,0,0,0,0.25,1,0
278,289000,289000,1,0,0,0,0.3125,1,0
279,289000,289000,1,0,0,0,0.375,1,0
280,289000,289000,1,0,0,0,0.4375,1,0
281,289000,289000,1,0,0,0,0.5,1,0
282,289000,289000,1,0,0,0,0.5625,1,0
283,289000,289000,1,0,0,0,0.625,1,0
284,289000,289000,1,0,0,0,0.6875,1,0
285,289000,289000,1,0,0,0,0.75,1,0
286,289000,289000,1,0,0,0,0.8125,1,0
287,289000,289000,1,0,0,0,0.875,1,0
288,289000,289000,1,0,0,0,0.9375,1,0
289,289000,289000,1,0,0,0,1,1,0
