"id","C_[0]","Cd_[0]","type","v:0","v:1","v:2","Points:0","Points:1","Points:2"
1,0,0,1,0,0,0,0,0,0
2,0,0,1,0,0,0,0.0625,0,0
3,0,0,1,0,0,0,0.125,0,0
4,0,0,1,0,0,0,0.1875,0,0
5,0,0,1,0,0,0,0.25,0,0
6,0,0,1,0,0,0,0.3125,0,0
7,0,0,1,0,0,0,0.375,0,0
8,0,0,1,0,0,0,0.4375,0,0
9,0,0,1,0,0,0,0.5,0,0
10,0,0,1,0,0,0,0.5625,0,0
11,0,0,1,0,0,0,0.625,0,0
12,0,0,1,0,0,0,0.6875,0,0
13,0,0,1,0,0,0,0.75,0,0
14,0,0,1,0,0,0,0.8125,0,0
15,0,0,1,0,0,0,0.875,0,0
16,0,0,1,0,0,0,0.9375,0,0
17,0,0,1,0,0,0,1,0,0
18,0,0,1,0,0,0,0,0.0625,0
19,150.567,0,1,0,0,0,0.0625,0.0625,0
20,293.909,578,1,0,0,0,0.125,0.0625,0
21,423.574,0,1,0,0,0,0.1875,0.0625,0
22,534.446,867,1,0,0,0,0.25,0.0625,0
23,622.982,578,1,0,0,0,0.3125,0.0625,0
24,687.096,289,1,0,0,0,0.375,0.0625,0
25,725.792,578,1,0,0,0,0.4375,0.0625,0
26,738.715,0,1,0,0,0,0.5,0.0625,0
27,725.792,289,1,0,0,0,0.5625,0.0625,0
28,687.096,289,1,0,0,0,0.625,0.0625,0
29,622.982,578,1,0,0,0,0.6875,0.0625,0
30,534.446,867,1,0,0,0,0.75,0.0625,0
31,423.574,0,1,0,0,0,0.8125,0.0625,0
32,293.909,578,1,0,0,0,0.875,0.0625,0
33,150.567,289,1,0,0,0,0.9375,0.0625,0
34,0,0,1,0,0,0,1,0.0625,0
35,0,0,1,0,0,0,0,0.125,0
36,346.842,289,1,0,0,0,0.0625,0.125,0
37,676.783,1445,1,0,0,0,0.125,0.125,0
38,974.804,2023,1,0,0,0,0.1875,0.125,0
39,1229.13,289,1,0,0,0,0.25,0.125,0
40,1431.78,867,1,0,0,0,0.3125,0.125,0
41,1578.23,578,1,0,0,0,0.375,0.125,0
42,1666.47,1445,1,0,0,0,0.4375,0.125,0
43,1695.92,867,1,0,0,0,0.5,0.125,0
44,1666.47,2023,1,0,0,0,0.5625,0.125,0
45,1578.23,2890,1,0,0,0,0.625,0.125,0
46,1431.78,1445,1,0,0,0,0.6875,0.125,0
47,1229.13,1734,1,0,0,0,0.75,0.125,0
48,974.804,1156,1,0,0,0,0.8125,0.125,0
49,676.783,578,1,0,0,0,0.875,0.125,0
50,346.842,289,1,0,0,0,0.9375,0.125,0
51,0,0,1,0,0,0,1,0.125,0
52,0,0,1,0,0,0,0,0.1875,0
53,642.39,289,1,0,0,0,0.0625,0.1875,0
54,1252.71,1734,1,0,0,0,0.125,0.1875,0
55,1802.68,1734,1,0,0,0,0.1875,0.1875,0
56,2270.54,2890,1,0,0,0,0.25,0.1875,0
57,2642.02,1734,1,0,0,0,0.3125,0.1875,0
58,2909.58,2601,1,0,0,0,0.375,0.1875,0
59,3070.39,2890,1,0,0,0,0.4375,0.1875,0
60,3123.97,5202,1,0,0,0,0.5,0.1875,0
61,3070.39,3757,1,0,0,0,0.5625,0.1875,0
62,2909.58,2023,1,0,0,0,0.625,0.1875,0
63,2642.02,3179,1,0,0,0,0.6875,0.1875,0
64,2270.54,3179,1,0,0,0,0.75,0.1875,0
65,1802.68,2890,1,0,0,0,0.8125,0.1875,0
66,1252.71,1445,1,0,0,0,0.875,0.1875,0
67,642.39,578,1,0,0,0,0.9375,0.1875,0
68,0,0,1,0,0,0,1,0.1875,0
69,0,0,1,0,0,0,0,0.25,0
70,1106.6,2601,1,0,0,0,0.0625,0.25,0
71,2156.1,3468,1,0,0,0,0.125,0.25,0
72,3098.73,4335,1,0,0,0,0.1875,0.25,0
73,3897.13,4335,1,0,0,0,0.25,0.25,0
74,4527.99,4913,1,0,0,0,0.3125,0.25,0
75,4980.28,4335,1,0,0,0,0.375,0.25,0
76,5251.12,5202,1,0,0,0,0.4375,0.25,0
77,5341.18,6647,1,0,0,0,0.5,0.25,0
78,5251.12,7225,1,0,0,0,0.5625,0.25,0
79,4980.28,4624,1,0,0,0,0.625,0.25,0
80,4527.99,4335,1,0,0,0,0.6875,0.25,0
81,3897.13,2890,1,0,0,0,0.75,0.25,0
82,3098.73,4046,1,0,0,0,0.8125,0.25,0
83,2156.1,2890,1,0,0,0,0.875,0.25,0
84,1106.6,867,1,0,0,0,0.9375,0.25,0
85,0,0,1,0,0,0,1,0.25,0
86,0,0,1,0,0,0,0,0.3125,0
87,1832.86,1445,1,0,0,0,0.0625,0.3125,0
88,3567.1,5780,1,0,0,0,0.125,0.3125,0
89,5117.92,3179,1,0,0,0,0.1875,0.3125,0
90,6423.82,8670,1,0,0,0,0.25,0.3125,0
91,7449.08,5491,1,0,0,0,0.3125,0.3125,0
92,8179.67,8959,1,0,0,0,0.375,0.3125,0
93,8615.09,7803,1,0,0,0,0.4375,0.3125,0
94,8759.5,11560,1,0,0,0,0.5,0.3125,0
95,8615.09,6069,1,0,0,0,0.5625,0.3125,0
96,8179.67,6647,1,0,0,0,0.625,0.3125,0
97,7449.08,8092,1,0,0,0,0.6875,0.3125,0
98,6423.82,8092,1,0,0,0,0.75,0.3125,0
99,5117.92,5491,1,0,0,0,0.8125,0.3125,0
100,3567.1,4046,1,0,0,0,0.875,0.3125,0
101,1832.86,2890,1,0,0,0,0.9375,0.3125,0
102,0,0,1,0,0,0,1,0.3125,0
103,0,0,1,0,0,0,0,0.375,0
104,2947.26,2890,1,0,0,0,0.0625,0.375,0
105,5727.17,4913,1,0,0,0,0.125,0.375,0
106,8198.610000000001,8959,1,0,0,0,0.1875,0.375,0
107,10263.7,8381,1,0,0,0,0.25,0.375,0
108,11871.4,11271,1,0,0,0,0.3125,0.375,0
109,13007.9,10982,1,0,0,0,0.375,0.375,0
110,13681.1,11271,1,0,0,0,0.4375,0.375,0
111,13903.6,10115,1,0,0,0,0.5,0.375,0
112,13681.1,9537,1,0,0,0,0.5625,0.375,0
113,13007.9,10404,1,0,0,0,0.625,0.375,0
114,11871.4,12716,1,0,0,0,0.6875,0.375,0
115,10263.7,12427,1,0,0,0,0.75,0.375,0
116,8198.610000000001,7225,1,0,0,0,0.8125,0.375,0
117,5727.17,4624,1,0,0,0,0.875,0.375,0
118,2947.26,3468,1,0,0,0,0.9375,0.375,0
119,0,0,1,0,0,0,1,0.375,0
120,0,0,1,0,0,0,0,0.4375,0
121,4618.49,4335,1,0,0,0,0.0625,0.4375,0
122,8956.09,9248,1,0,0,0,0.125,0.4375,0
123,12781.9,10693,1,0,0,0,0.1875,0.4375,0
124,15945.8,14739,1,0,0,0,0.25,0.4375,0
125,18381.3,21964,1,0,0,0,0.3125,0.4375,0
126,20085,17918,1,0,0,0,0.375,0.4375,0
127,21086,20808,1,0,0,0,0.4375,0.4375,0
128,21415.4,24565,1,0,0,0,0.5,0.4375,0
129,21086,23409,1,0,0,0,0.5625,0.4375,0
130,20085,16762,1,0,0,0,0.625,0.4375,0
131,18381.3,18785,1,0,0,0,0.6875,0.4375,0
132,15945.8,14739,1,0,0,0,0.75,0.4375,0
133,12781.9,12138,1,0,0,0,0.8125,0.4375,0
134,8956.09,10115,1,0,0,0,0.875,0.4375,0
135,4618.49,4335,1,0,0,0,0.9375,0.4375,0
136,0,0,1,0,0,0,1,0.4375,0
137,0,0,1,0,0,0,0,0.5,0
138,7071.7,9248,1,0,0,0,0.0625,0.5,0
139,13673.4,16473,1,0,0,0,0.125,0.5,0
140,19432.3,16473,1,0,0,0,0.1875,0.5,0
141,24127.5,23409,1,0,0,0,0.25,0.5,0
142,27687.2,27455,1,0,0,0,0.3125,0.5,0
143,30143.1,25432,1,0,0,0,0.375,0.5,0
144,31570.8,30345,1,0,0,0,0.4375,0.5,0
145,32037.9,27744,1,0,0,0,0.5,0.5,0
146,31570.8,28322,1,0,0,0,0.5625,0.5,0
147,30143.1,32368,1,0,0,0,0.625,0.5,0
148,27687.2,29767,1,0,0,0,0.6875,0.5,0
149,24127.5,19363,1,0,0,0,0.75,0.5,0
150,19432.3,17918,1,0,0,0,0.8125,0.5,0
151,13673.4,13294,1,0,0,0,0.875,0.5,0
152,7071.7,6069,1,0,0,0,0.9375,0.5,0
153,0,0,1,0,0,0,1,0.5,0
154,0,0,1,0,0,0,0,0.5625,0
155,10612.7,10115,1,0,0,0,0.0625,0.5625,0
156,20433,22542,1,0,0,0,0.125,0.5625,0
157,28864.8,29478,1,0,0,0,0.1875,0.5625,0
158,35603.4,34391,1,0,0,0,0.25,0.5625,0
159,40607.3,34391,1,0,0,0,0.3125,0.5625,0
160,43996.2,47396,1,0,0,0,0.375,0.5625,0
161,45939.4,51442,1,0,0,0,0.4375,0.5625,0
162,46570.6,39593,1,0,0,0,0.5,0.5625,0
163,45939.4,46240,1,0,0,0,0.5625,0.5625,0
164,43996.2,40460,1,0,0,0,0.625,0.5625,0
165,40607.3,43639,1,0,0,0,0.6875,0.5625,0
166,35603.4,37281,1,0,0,0,0.75,0.5625,0
167,28864.8,27166,1,0,0,0,0.8125,0.5625,0
168,20433,21386,1,0,0,0,0.875,0.5625,0
169,10612.7,12716,1,0,0,0,0.9375,0.5625,0
170,0,0,1,0,0,0,1,0.5625,0
171,0,0,1,0,0,0,0,0.625,0
172,15678.7,15895,1,0,0,0,0.0625,0.625,0
173,29992.2,28900,1,0,0,0,0.125,0.625,0
174,41993.8,40171,1,0,0,0,0.1875,0.625,0
175,51313.3,49419,1,0,0,0,0.25,0.625,0
176,58038.2,58667,1,0,0,0,0.3125,0.625,0
177,62482.4,62424,1,0,0,0,0.375,0.625,0
178,64985.9,63869,1,0,0,0,0.4375,0.625,0
179,65791.5,71094,1,0,0,0,0.5,0.625,0
180,64985.9,62424,1,0,0,0,0.5625,0.625,0
181,62482.4,66181,1,0,0,0,0.625,0.625,0
182,58038.2,63002,1,0,0,0,0.6875,0.625,0
183,51313.3,54910,1,0,0,0,0.75,0.625,0
184,41993.8,46529,1,0,0,0,0.8125,0.625,0
185,29992.2,30345,1,0,0,0,0.875,0.625,0
186,15678.7,16473,1,0,0,0,0.9375,0.625,0
187,0,0,1,0,0,0,1,0.625,0
188,0,0,1,0,0,0,0,0.6875,0
189,22958.8,24854,1,0,0,0,0.0625,0.6875,0
190,43461.4,44506,1,0,0,0,0.125,0.6875,0
191,60024.6,66181,1,0,0,0,0.1875,0.6875,0
192,72350.60000000001,69071,1,0,0,0,0.25,0.6875,0
193,80899.2,80920,1,0,0,0,0.3125,0.6875,0
194,86370.89999999999,96526,1,0,0,0,0.375,0.6875,0
195,89385.89999999999,84099,1,0,0,0,0.4375,0.6875,0
196,90345.3,91902,1,0,0,0,0.5,0.6875,0
197,89385.89999999999,100572,1,0,0,0,0.5625,0.6875,0
198,86370.89999999999,96526,1,0,0,0,0.625,0.6875,0
199,80899.2,77163,1,0,0,0,0.6875,0.6875,0
200,72350.60000000001,73117,1,0,0,0,0.75,0.6875,0
201,60024.6,53176,1,0,0,0,0.8125,0.6875,0
202,43461.4,42772,1,0,0,0,0.875,0.6875,0
203,22958.8,29767,1,0,0,0,0.9375,0.6875,0
204,0,0,1,0,0,0,1,0.6875,0
205,0,0,1,0,0,0,0,0.75,0
206,33702.6,30634,1,0,0,0,0.0625,0.75,0
207,62641.2,62424,1,0,0,0,0.125,0.75,0
208,84615.60000000001,89590,1,0,0,0,0.1875,0.75,0
209,99951.60000000001,105774,1,0,0,0,0.25,0.75,0
210,110030,126871,1,0,0,0,0.3125,0.75,0
211,116228,108664,1,0,0,0,0.375,0.75,0
212,119556,114733,1,0,0,0,0.4375,0.75,0
213,120602,128316,1,0,0,0,0.5,0.75,0
214,119556,108375,1,0,0,0,0.5625,0.75,0
215,116228,119935,1,0,0,0,0.625,0.75,0
216,110030,109242,1,0,0,0,0.6875,0.75,0
217,99951.60000000001,106352,1,0,0,0,0.75,0.75,0
218,84615.60000000001,79475,1,0,0,0,0.8125,0.75,0
219,62641.2,62424,1,0,0,0,0.875,0.75,0
220,33702.6,34102,1,0,0,0,0.9375,0.75,0
221,0,0,1,0,0,0,1,0.75,0
222,0,0,1,0,0,0,0,0.8125,0
223,50619.3,50864,1,0,0,0,0.0625,0.8125,0
224,90774.89999999999,93347,1,0,0,0,0.125,0.8125,0
225,118073,123403,1,0,0,0,0.1875,0.8125,0
226,135377,139587,1,0,0,0,0.25,0.8125,0
227,145995,136697,1,0,0,0,0.3125,0.8125,0
228,152235,148835,1,0,0,0,0.375,0.8125,0
229,155493,156349,1,0,0,0,0.4375,0.8125,0
230,156503,167042,1,0,0,0,0.5,0.8125,0
231,155493,167042,1,0,0,0,0.5625,0.8125,0
232,152235,144789,1,0,0,0,0.625,0.8125,0
233,145995,143633,1,0,0,0,0.6875,0.8125,0
234,135377,132651,1,0,0,0,0.75,0.8125,0
235,118073,120513,1,0,0,0,0.8125,0.8125,0
236,90774.89999999999,88723,1,0,0,0,0.875,0.8125,0
237,50619.3,49130,1,0,0,0,0.9375,0.8125,0
238,0,0,1,0,0,0,1,0.8125,0
239,0,0,1,0,0,0,0,0.875,0
240,81041.39999999999,84388,1,0,0,0,0.0625,0.875,0
241,133989,131784,1,0,0,0,0.125,0.875,0
242,163166,162418,1,0,0,0,0.1875,0.875,0
243,179469,171377,1,0,0,0,0.25,0.875,0
244,188752,189006,1,0,0,0,0.3125,0.875,0
245,193969,185249,1,0,0,0,0.375,0.875,0
246,196624,194786,1,0,0,0,0.4375,0.875,0
247,197438,201144,1,0,0,0,0.5,0.875,0
248,196624,197387,1,0,0,0,0.5625,0.875,0
249,193969,185538,1,0,0,0,0.625,0.875,0
250,188752,193341,1,0,0,0,0.6875,0.875,0
251,179469,182359,1,0,0,0,0.75,0.875,0
252,163166,158083,1,0,0,0,0.8125,0.875,0
253,133989,132362,1,0,0,0,0.875,0.875,0
254,81041.39999999999,80053,1,0,0,0,0.9375,0.875,0
255,0,0,1,0,0,0,1,0.875,0
256,0,0,1,0,0,0,0,0.9375,0
257,151597,153748,1,0,0,0,0.0625,0.9375,0
258,200512,200277,1,0,0,0,0.125,0.9375,0
259,221330,215305,1,0,0,0,0.1875,0.9375,0
260,231671,236980,1,0,0,0,0.25,0.9375,0
261,237213,239292,1,0,0,0,0.3125,0.9375,0
262,240225,232934,1,0,0,0,0.375,0.9375,0
263,241730,241893,1,0,0,0,0.4375,0.9375,0
264,242187,243049,1,0,0,0,0.5,0.9375,0
265,241730,256921,1,0,0,0,0.5625,0.9375,0
266,240225,228021,1,0,0,0,0.625,0.9375,0
267,237213,239003,1,0,0,0,0.6875,0.9375,0
268,231671,240448,1,0,0,0,0.75,0.9375,0
269,221330,198254,1,0,0,0,0.8125,0.9375,0
270,200512,204612,1,0,0,0,0.875,0.9375,0
271,151597,152592,1,0,0,0,0.9375,0.9375,0
272,0,0,1,0,0,0,1,0.9375,0
273,289000,289000,1,0,0,0,0,1,0
274,289000,289000,1,0,0,0,0.0625,1,0
275,289000,289000,1,0,0,0,0.125,1,0
276,289000,289000,1,0,0,0,0.1875,1,0
277,289000,289000,1,0,0,0,0.25,1,0
278,289000,289000,1,0,0,0,0.3125,1,0
279,289000,289000,1,0,0,0,0.375,1,0
280,289000,289000,1,0,0,0,0.4375,1,0
281,289000,289000,1,0,0,0,0.5,1,0
282,289000,289000,1,0,0,0,0.5625,1,0
283,289000,289000,1,0,0,0,0.625,1,0
284,289000,289000,1,0,0,0,0.6875,1,0
285,289000,289000,1,0,0,0,0.75,1,0
286,289000,289000,1,0,0,0,0.8125,1,0
287,289000,289000,1,0,0,0,0.875,1,0
288,289000,289000,1,0,0,0,0.9375,1,0
289,289000,289000,1,0,0,0,1,1,0
