"id","C_[0]","Cd_[0]","type","v:0","v:1","v:2","Points:0","Points:1","Points:2"
1,0,0,1,0,0,0,0,0,0
2,0,0,1,0,0,0,0.0625,0,0
3,0,0,1,0,0,0,0.125,0,0
4,0,0,1,0,0,0,0.1875,0,0
5,0,0,1,0,0,0,0.25,0,0
6,0,0,1,0,0,0,0.3125,0,0
7,0,0,1,0,0,0,0.375,0,0
8,0,0,1,0,0,0,0.4375,0,0
9,0,0,1,0,0,0,0.5,0,0
10,0,0,1,0,0,0,0.5625,0,0
11,0,0,1,0,0,0,0.625,0,0
12,0,0,1,0,0,0,0.6875,0,0
13,0,0,1,0,0,0,0.75,0,0
14,0,0,1,0,0,0,0.8125,0,0
15,0,0,1,0,0,0,0.875,0,0
16,0,0,1,0,0,0,0.9375,0,0
17,0,0,1,0,0,0,1,0,0
18,0,0,1,0,0,0,0,0.0625,0
19,554.46,0,1,0,0,0,0.0625,0.0625,0
20,1085.61,867,1,0,0,0,0.125,0.0625,0
21,1571.72,1445,1,0,0,0,0.1875,0.0625,0
22,1993.91,1445,1,0,0,0,0.25,0.0625,0
23,2336.97,2312,1,0,0,0,0.3125,0.0625,0
24,2589.54,1156,1,0,0,0,0.375,0.0625,0
25,2743.96,3468,1,0,0,0,0.4375,0.0625,0
26,2795.91,3468,1,0,0,0,0.5,0.0625,0
27,2743.96,2890,1,0,0,0,0.5625,0.0625,0
28,2589.54,2312,1,0,0,0,0.625,0.0625,0
29,2336.97,2023,1,0,0,0,0.6875,0.0625,0
30,1993.91,2023,1,0,0,0,0.75,0.0625,0
31,1571.72,1734,1,0,0,0,0.8125,0.0625,0
32,1085.61,2312,1,0,0,0,0.875,0.0625,0
33,554.46,578,1,0,0,0,0.9375,0.0625,0
34,0,0,1,0,0,0,1,0.0625,0
35,0,0,1,0,0,0,0,0.125,0
36,1175.53,867,1,0,0,0,0.0625,0.125,0
37,2301.12,3179,1,0,0,0,0.125,0.125,0
38,3330.41,4624,1,0,0,0,0.1875,0.125,0
39,4223.38,4335,1,0,0,0,0.25,0.125,0
40,4948.11,3468,1,0,0,0,0.3125,0.125,0
41,5481.08,3757,1,0,0,0,0.375,0.125,0
42,5806.69,6069,1,0,0,0,0.4375,0.125,0
43,5916.16,6647,1,0,0,0,0.5,0.125,0
44,5806.69,4335,1,0,0,0,0.5625,0.125,0
45,5481.08,1734,1,0,0,0,0.625,0.125,0
46,4948.11,6358,1,0,0,0,0.6875,0.125,0
47,4223.38,2890,1,0,0,0,0.75,0.125,0
48,3330.41,4335,1,0,0,0,0.8125,0.125,0
49,2301.12,2312,1,0,0,0,0.875,0.125,0
50,1175.53,1445,1,0,0,0,0.9375,0.125,0
51,0,0,1,0,0,0,1,0.125,0
52,0,0,1,0,0,0,0,0.1875,0
53,1933.36,1156,1,0,0,0,0.0625,0.1875,0
54,3783.13,5780,1,0,0,0,0.125,0.1875,0
55,5472.14,5202,1,0,0,0,0.1875,0.1875,0
56,6934.67,6358,1,0,0,0,0.25,0.1875,0
57,8119.15,7803,1,0,0,0,0.3125,0.1875,0
58,8988.57,11271,1,0,0,0,0.375,0.1875,0
59,9518.92,7803,1,0,0,0,0.4375,0.1875,0
60,9697.08,10982,1,0,0,0,0.5,0.1875,0
61,9518.92,9826,1,0,0,0,0.5625,0.1875,0
62,8988.57,6936,1,0,0,0,0.625,0.1875,0
63,8119.15,10115,1,0,0,0,0.6875,0.1875,0
64,6934.67,8670,1,0,0,0,0.75,0.1875,0
65,5472.14,4335,1,0,0,0,0.8125,0.1875,0
66,3783.13,5202,1,0,0,0,0.875,0.1875,0
67,1933.36,1445,1,0,0,0,0.9375,0.1875,0
68,0,0,1,0,0,0,1,0.1875,0
69,0,0,1,0,0,0,0,0.25,0
70,2905.43,3468,1,0,0,0,0.0625,0.25,0
71,5681.88,5491,1,0,0,0,0.125,0.25,0
72,8211.360000000001,6936,1,0,0,0,0.1875,0.25,0
73,10395.3,10982,1,0,0,0,0.25,0.25,0
74,12158.4,9537,1,0,0,0,0.3125,0.25,0
75,13448.8,11849,1,0,0,0,0.375,0.25,0
76,14234.2,11560,1,0,0,0,0.4375,0.25,0
77,14497.7,13872,1,0,0,0,0.5,0.25,0
78,14234.2,15606,1,0,0,0,0.5625,0.25,0
79,13448.8,13583,1,0,0,0,0.625,0.25,0
80,12158.4,8381,1,0,0,0,0.6875,0.25,0
81,10395.3,11271,1,0,0,0,0.75,0.25,0
82,8211.360000000001,7514,1,0,0,0,0.8125,0.25,0
83,5681.88,6358,1,0,0,0,0.875,0.25,0
84,2905.43,4335,1,0,0,0,0.9375,0.25,0
85,0,0,1,0,0,0,1,0.25,0
86,0,0,1,0,0,0,0,0.3125,0
87,4180.82,2312,1,0,0,0,0.0625,0.3125,0
88,8169.02,6358,1,0,0,0,0.125,0.3125,0
89,11790.7,12716,1,0,0,0,0.1875,0.3125,0
90,14904.4,18496,1,0,0,0,0.25,0.3125,0
91,17406.8,16762,1,0,0,0,0.3125,0.3125,0
92,19230.5,19652,1,0,0,0,0.375,0.3125,0
93,20337,21964,1,0,0,0,0.4375,0.3125,0
94,20707.6,17340,1,0,0,0,0.5,0.3125,0
95,20337,19652,1,0,0,0,0.5625,0.3125,0
96,19230.5,20519,1,0,0,0,0.625,0.3125,0
97,17406.8,22253,1,0,0,0,0.6875,0.3125,0
98,14904.4,18496,1,0,0,0,0.75,0.3125,0
99,11790.7,12716,1,0,0,0,0.8125,0.3125,0
100,8169.02,4913,1,0,0,0,0.875,0.3125,0
101,4180.82,4335,1,0,0,0,0.9375,0.3125,0
102,0,0,1,0,0,0,1,0.3125,0
103,0,0,1,0,0,0,0,0.375,0
104,5865.9,7514,1,0,0,0,0.0625,0.375,0
105,11447.4,7803,1,0,0,0,0.125,0.375,0
106,16492.6,16184,1,0,0,0,0.1875,0.375,0
107,20804.1,16184,1,0,0,0,0.25,0.375,0
108,24246.8,27744,1,0,0,0,0.3125,0.375,0
109,26741.1,26588,1,0,0,0,0.375,0.375,0
110,28247.7,30634,1,0,0,0,0.4375,0.375,0
111,28751.1,28611,1,0,0,0,0.5,0.375,0
112,28247.7,28611,1,0,0,0,0.5625,0.375,0
113,26741.1,26299,1,0,0,0,0.625,0.375,0
114,24246.8,20230,1,0,0,0,0.6875,0.375,0
115,20804.1,16762,1,0,0,0,0.75,0.375,0
116,16492.6,17918,1,0,0,0,0.8125,0.375,0
117,11447.4,13005,1,0,0,0,0.875,0.375,0
118,5865.9,4913,1,0,0,0,0.9375,0.375,0
119,0,0,1,0,0,0,1,0.375,0
120,0,0,1,0,0,0,0,0.4375,0
121,8093.01,10693,1,0,0,0,0.0625,0.4375,0
122,15765.6,14739,1,0,0,0,0.125,0.4375,0
123,22654.7,22542,1,0,0,0,0.1875,0.4375,0
124,28491.7,30923,1,0,0,0,0.25,0.4375,0
125,33110.5,29767,1,0,0,0,0.3125,0.4375,0
126,36429.4,37281,1,0,0,0,0.375,0.4375,0
127,38421.7,36703,1,0,0,0,0.4375,0.4375,0
128,39085.2,42772,1,0,0,0,0.5,0.4375,0
129,38421.7,39882,1,0,0,0,0.5625,0.4375,0
130,36429.4,36703,1,0,0,0,0.625,0.4375,0
131,33110.5,34102,1,0,0,0,0.6875,0.4375,0
132,28491.7,27455,1,0,0,0,0.75,0.4375,0
133,22654.7,23698,1,0,0,0,0.8125,0.4375,0
134,15765.6,14739,1,0,0,0,0.875,0.4375,0
135,8093.01,6069,1,0,0,0,0.9375,0.4375,0
136,0,0,1,0,0,0,1,0.4375,0
137,0,0,1,0,0,0,0,0.5,0
138,11035.5,10115,1,0,0,0,0.0625,0.5,0
139,21441.5,20230,1,0,0,0,0.125,0.5,0
140,30694.2,34391,1,0,0,0,0.1875,0.5,0
141,38437.9,39015,1,0,0,0,0.25,0.5,0
142,44487.1,47974,1,0,0,0,0.3125,0.5,0
143,48784.3,52020,1,0,0,0,0.375,0.5,0
144,51341.8,52887,1,0,0,0,0.4375,0.5,0
145,52189.8,55777,1,0,0,0,0.5,0.5,0
146,51341.8,49419,1,0,0,0,0.5625,0.5,0
147,48784.3,52598,1,0,0,0,0.625,0.5,0
148,44487.1,45084,1,0,0,0,0.6875,0.5,0
149,38437.9,39015,1,0,0,0,0.75,0.5,0
150,30694.2,29189,1,0,0,0,0.8125,0.5,0
151,21441.5,19941,1,0,0,0,0.875,0.5,0
152,11035.5,11560,1,0,0,0,0.9375,0.5,0
153,0,0,1,0,0,0,1,0.5,0
154,0,0,1,0,0,0,0,0.5625,0
155,14936.4,14739,1,0,0,0,0.0625,0.5625,0
156,28906.3,23987,1,0,0,0,0.125,0.5625,0
157,41148.7,41327,1,0,0,0,0.1875,0.5625,0
158,51211.4,48263,1,0,0,0,0.25,0.5625,0
159,58929.5,54043,1,0,0,0,0.3125,0.5625,0
160,64325.6,69938,1,0,0,0,0.375,0.5625,0
161,67500.39999999999,66470,1,0,0,0,0.4375,0.5625,0
162,68546.5,69360,1,0,0,0,0.5,0.5625,0
163,67500.39999999999,59823,1,0,0,0,0.5625,0.5625,0
164,64325.6,63869,1,0,0,0,0.625,0.5625,0
165,58929.5,59245,1,0,0,0,0.6875,0.5625,0
166,51211.4,53176,1,0,0,0,0.75,0.5625,0
167,41148.7,41616,1,0,0,0,0.8125,0.5625,0
168,28906.3,28900,1,0,0,0,0.875,0.5625,0
169,14936.4,14739,1,0,0,0,0.9375,0.5625,0
170,0,0,1,0,0,0,1,0.5625,0
171,0,0,1,0,0,0,0,0.625,0
172,20167.8,17629,1,0,0,0,0.0625,0.625,0
173,38789.3,41905,1,0,0,0,0.125,0.625,0
174,54746.5,51731,1,0,0,0,0.1875,0.625,0
175,67516.2,64447,1,0,0,0,0.25,0.625,0
176,77057.7,76007,1,0,0,0,0.3125,0.625,0
177,83584.60000000001,86411,1,0,0,0,0.375,0.625,0
178,87365.7,86700,1,0,0,0,0.4375,0.625,0
179,88601.89999999999,78608,1,0,0,0,0.5,0.625,0
180,87365.7,86700,1,0,0,0,0.5625,0.625,0
181,83584.60000000001,85255,1,0,0,0,0.625,0.625,0
182,77057.7,67626,1,0,0,0,0.6875,0.625,0
183,67516.2,70227,1,0,0,0,0.75,0.625,0
184,54746.5,51442,1,0,0,0,0.8125,0.625,0
185,38789.3,32946,1,0,0,0,0.875,0.625,0
186,20167.8,20808,1,0,0,0,0.9375,0.625,0
187,0,0,1,0,0,0,1,0.625,0
188,0,0,1,0,0,0,0,0.6875,0
189,27361.1,29189,1,0,0,0,0.0625,0.6875,0
190,52088.1,56355,1,0,0,0,0.125,0.6875,0
191,72529.8,73695,1,0,0,0,0.1875,0.6875,0
192,88238.39999999999,87567,1,0,0,0,0.25,0.6875,0
193,99548,107508,1,0,0,0,0.3125,0.6875,0
194,107061,108375,1,0,0,0,0.375,0.6875,0
195,111328,114733,1,0,0,0,0.4375,0.6875,0
196,112709,116178,1,0,0,0,0.5,0.6875,0
197,111328,115022,1,0,0,0,0.5625,0.6875,0
198,107061,104040,1,0,0,0,0.625,0.6875,0
199,99548,106063,1,0,0,0,0.6875,0.6875,0
200,88238.39999999999,78608,1,0,0,0,0.75,0.6875,0
201,72529.8,68204,1,0,0,0,0.8125,0.6875,0
202,52088.1,52887,1,0,0,0,0.875,0.6875,0
203,27361.1,26588,1,0,0,0,0.9375,0.6875,0
204,0,0,1,0,0,0,1,0.6875,0
205,0,0,1,0,0,0,0,0.75,0
206,37728.1,41327,1,0,0,0,0.0625,0.75,0
207,70529.39999999999,70516,1,0,0,0,0.125,0.75,0
208,96049.89999999999,100861,1,0,0,0,0.1875,0.75,0
209,114478,121091,1,0,0,0,0.25,0.75,0
210,127080,117912,1,0,0,0,0.3125,0.75,0
211,135144,143633,1,0,0,0,0.375,0.75,0
212,139617,144500,1,0,0,0,0.4375,0.75,0
213,141048,149413,1,0,0,0,0.5,0.75,0
214,139617,139587,1,0,0,0,0.5625,0.75,0
215,135144,137853,1,0,0,0,0.625,0.75,0
216,127080,123114,1,0,0,0,0.6875,0.75,0
217,114478,118201,1,0,0,0,0.75,0.75,0
218,96049.89999999999,88145,1,0,0,0,0.8125,0.75,0
219,70529.39999999999,76296,1,0,0,0,0.875,0.75,0
220,37728.1,38437,1,0,0,0,0.9375,0.75,0
221,0,0,1,0,0,0,1,0.75,0
222,0,0,1,0,0,0,0,0.8125,0
223,53970.3,53754,1,0,0,0,0.0625,0.8125,0
224,97341.2,89012,1,0,0,0,0.125,0.8125,0
225,127591,134096,1,0,0,0,0.1875,0.8125,0
226,147469,152014,1,0,0,0,0.25,0.8125,0
227,160187,146523,1,0,0,0,0.3125,0.8125,0
228,167980,180625,1,0,0,0,0.375,0.8125,0
229,172190,172533,1,0,0,0,0.4375,0.8125,0
230,173521,177157,1,0,0,0,0.5,0.8125,0
231,172190,181492,1,0,0,0,0.5625,0.8125,0
232,167980,168776,1,0,0,0,0.625,0.8125,0
233,160187,151725,1,0,0,0,0.6875,0.8125,0
234,147469,156638,1,0,0,0,0.75,0.8125,0
235,127591,121669,1,0,0,0,0.8125,0.8125,0
236,97341.2,90457,1,0,0,0,0.875,0.8125,0
237,53970.3,54332,1,0,0,0,0.9375,0.8125,0
238,0,0,1,0,0,0,1,0.8125,0
239,0,0,1,0,0,0,0,0.875,0
240,83448.60000000001,90457,1,0,0,0,0.0625,0.875,0
241,138706,137564,1,0,0,0,0.125,0.875,0
242,170003,167331,1,0,0,0,0.1875,0.875,0
243,188154,197098,1,0,0,0,0.25,0.875,0
244,198946,198543,1,0,0,0,0.3125,0.875,0
245,205279,205190,1,0,0,0,0.375,0.875,0
246,208617,205768,1,0,0,0,0.4375,0.875,0
247,209661,210970,1,0,0,0,0.5,0.875,0
248,208617,228021,1,0,0,0,0.5625,0.875,0
249,205279,196231,1,0,0,0,0.625,0.875,0
250,198946,203456,1,0,0,0,0.6875,0.875,0
251,188154,189295,1,0,0,0,0.75,0.875,0
252,170003,170221,1,0,0,0,0.8125,0.875,0
253,138706,138431,1,0,0,0,0.875,0.875,0
254,83448.60000000001,81787,1,0,0,0,0.9375,0.875,0
255,0,0,1,0,0,0,1,0.875,0
256,0,0,1,0,0,0,0,0.9375,0
257,152856,149413,1,0,0,0,0.0625,0.9375,0
258,202979,215305,1,0,0,0,0.125,0.9375,0
259,224906,223108,1,0,0,0,0.1875,0.9375,0
260,236213,250274,1,0,0,0,0.25,0.9375,0
261,242544,243916,1,0,0,0,0.3125,0.9375,0
262,246139,243338,1,0,0,0,0.375,0.9375,0
263,248001,250852,1,0,0,0,0.4375,0.9375,0
264,248578,244494,1,0,0,0,0.5,0.9375,0
265,248001,233223,1,0,0,0,0.5625,0.9375,0
266,246139,250852,1,0,0,0,0.625,0.9375,0
267,242544,235246,1,0,0,0,0.6875,0.9375,0
268,236213,238714,1,0,0,0,0.75,0.9375,0
269,224906,220218,1,0,0,0,0.8125,0.9375,0
270,202979,207502,1,0,0,0,0.875,0.9375,0
271,152856,148257,1,0,0,0,0.9375,0.9375,0
272,0,0,1,0,0,0,1,0.9375,0
273,289000,289000,1,0,0,0,0,1,0
274,289000,289000,1,0,0,0,0.0625,1,0
275,289000,289000,1,0,0,0,0.125,1,0
276,289000,289000,1,0,0,0,0.1875,1,0
277,289000,289000,1,0,0,0,0.25,1,0
278,289000,289000,1,0,0,0,0.3125,1,0
279,289000,289000,1,0,0,0,0.375,1,0
280,289000,289000,1,0,0,0,0.4375,1,0
281,289000,289000,1,0,0,0,0.5,1,0
282,289000,289000,1,0,0,0,0.5625,1,0
283,289000,289000,1,0,0,0,0.625,1,0
284,289000,289000,1,0,0,0,0.6875,1,0
285,289000,289000,1,0,0,0,0.75,1,0
286,289000,289000,1,0,0,0,0.8125,1,0
287,289000,289000,1,0,0,0,0.875,1,0
288,289000,289000,1,0,0,0,0.9375,1,0
289,289000,289000,1,0,0,0,1,1,0
