"id","C_[0]","Cd_[0]","type","v:0","v:1","v:2","Points:0","Points:1","Points:2"
1,0,0,1,0,0,0,0,0,0
2,0,0,1,0,0,0,0.0625,0,0
3,0,0,1,0,0,0,0.125,0,0
4,0,0,1,0,0,0,0.1875,0,0
5,0,0,1,0,0,0,0.25,0,0
6,0,0,1,0,0,0,0.3125,0,0
7,0,0,1,0,0,0,0.375,0,0
8,0,0,1,0,0,0,0.4375,0,0
9,0,0,1,0,0,0,0.5,0,0
10,0,0,1,0,0,0,0.5625,0,0
11,0,0,1,0,0,0,0.625,0,0
12,0,0,1,0,0,0,0.6875,0,0
13,0,0,1,0,0,0,0.75,0,0
14,0,0,1,0,0,0,0.8125,0,0
15,0,0,1,0,0,0,0.875,0,0
16,0,0,1,0,0,0,0.9375,0,0
17,0,0,1,0,0,0,1,0,0
18,0,0,1,0,0,0,0,0.0625,0
19,1238.98,2312,1,0,0,0,0.0625,0.0625,0
20,2428.3,2601,1,0,0,0,0.125,0.0625,0
21,3520.93,4046,1,0,0,0,0.1875,0.0625,0
22,4474.67,3468,1,0,0,0,0.25,0.0625,0
23,5253.88,4046,1,0,0,0,0.3125,0.0625,0
24,5830.51,4046,1,0,0,0,0.375,0.0625,0
25,6184.47,3757,1,0,0,0,0.4375,0.0625,0
26,6303.78,8959,1,0,0,0,0.5,0.0625,0
27,6184.47,4913,1,0,0,0,0.5625,0.0625,0
28,5830.51,6358,1,0,0,0,0.625,0.0625,0
29,5253.88,5202,1,0,0,0,0.6875,0.0625,0
30,4474.67,4624,1,0,0,0,0.75,0.0625,0
31,3520.93,2023,1,0,0,0,0.8125,0.0625,0
32,2428.3,2601,1,0,0,0,0.875,0.0625,0
33,1238.98,2023,1,0,0,0,0.9375,0.0625,0
34,0,0,1,0,0,0,1,0.0625,0
35,0,0,1,0,0,0,0,0.125,0
36,2528.15,3757,1,0,0,0,0.0625,0.125,0
37,4954.32,5780,1,0,0,0,0.125,0.125,0
38,7182.1,4624,1,0,0,0,0.1875,0.125,0
39,9125.42,10982,1,0,0,0,0.25,0.125,0
40,10712,12427,1,0,0,0,0.3125,0.125,0
41,11885.3,8670,1,0,0,0,0.375,0.125,0
42,12605.2,12427,1,0,0,0,0.4375,0.125,0
43,12847.8,15317,1,0,0,0,0.5,0.125,0
44,12605.2,12716,1,0,0,0,0.5625,0.125,0
45,11885.3,10693,1,0,0,0,0.625,0.125,0
46,10712,10115,1,0,0,0,0.6875,0.125,0
47,9125.42,6936,1,0,0,0,0.75,0.125,0
48,7182.1,8670,1,0,0,0,0.8125,0.125,0
49,4954.32,3179,1,0,0,0,0.875,0.125,0
50,2528.15,1445,1,0,0,0,0.9375,0.125,0
51,0,0,1,0,0,0,1,0.125,0
52,0,0,1,0,0,0,0,0.1875,0
53,3920.48,3757,1,0,0,0,0.0625,0.1875,0
54,7680.91,7514,1,0,0,0,0.125,0.1875,0
55,11130.6,8959,1,0,0,0,0.1875,0.1875,0
56,14136.2,13005,1,0,0,0,0.25,0.1875,0
57,16586.8,17051,1,0,0,0,0.3125,0.1875,0
58,18396.9,19941,1,0,0,0,0.375,0.1875,0
59,19506.5,18207,1,0,0,0,0.4375,0.1875,0
60,19880.2,19074,1,0,0,0,0.5,0.1875,0
61,19506.5,19652,1,0,0,0,0.5625,0.1875,0
62,18396.9,17340,1,0,0,0,0.625,0.1875,0
63,16586.8,17051,1,0,0,0,0.6875,0.1875,0
64,14136.2,13583,1,0,0,0,0.75,0.1875,0
65,11130.6,11849,1,0,0,0,0.8125,0.1875,0
66,7680.91,8381,1,0,0,0,0.875,0.1875,0
67,3920.48,4913,1,0,0,0,0.9375,0.1875,0
68,0,0,1,0,0,0,1,0.1875,0
69,0,0,1,0,0,0,0,0.25,0
70,5474.86,7803,1,0,0,0,0.0625,0.25,0
71,10721.8,10693,1,0,0,0,0.125,0.25,0
72,15528,17629,1,0,0,0,0.1875,0.25,0
73,19707,18207,1,0,0,0,0.25,0.25,0
74,23107.3,28900,1,0,0,0,0.3125,0.25,0
75,25614.1,26588,1,0,0,0,0.375,0.25,0
76,27148.4,22253,1,0,0,0,0.4375,0.25,0
77,27664.8,23987,1,0,0,0,0.5,0.25,0
78,27148.4,30056,1,0,0,0,0.5625,0.25,0
79,25614.1,27166,1,0,0,0,0.625,0.25,0
80,23107.3,26010,1,0,0,0,0.6875,0.25,0
81,19707,19363,1,0,0,0,0.75,0.25,0
82,15528,17051,1,0,0,0,0.8125,0.25,0
83,10721.8,10404,1,0,0,0,0.875,0.25,0
84,5474.86,3468,1,0,0,0,0.9375,0.25,0
85,0,0,1,0,0,0,1,0.25,0
86,0,0,1,0,0,0,0,0.3125,0
87,7260.24,6069,1,0,0,0,0.0625,0.3125,0
88,14209.3,16473,1,0,0,0,0.125,0.3125,0
89,20559.5,15028,1,0,0,0,0.1875,0.3125,0
90,26064.4,28033,1,0,0,0,0.25,0.3125,0
91,30528.9,31501,1,0,0,0,0.3125,0.3125,0
92,33810.4,26299,1,0,0,0,0.375,0.3125,0
93,35814.4,31790,1,0,0,0,0.4375,0.3125,0
94,36488.1,38726,1,0,0,0,0.5,0.3125,0
95,35814.4,36125,1,0,0,0,0.5625,0.3125,0
96,33810.4,32946,1,0,0,0,0.625,0.3125,0
97,30528.9,29189,1,0,0,0,0.6875,0.3125,0
98,26064.4,23409,1,0,0,0,0.75,0.3125,0
99,20559.5,23120,1,0,0,0,0.8125,0.3125,0
100,14209.3,12716,1,0,0,0,0.875,0.3125,0
101,7260.24,4913,1,0,0,0,0.9375,0.3125,0
102,0,0,1,0,0,0,1,0.3125,0
103,0,0,1,0,0,0,0,0.375,0
104,9361.76,8381,1,0,0,0,0.0625,0.375,0
105,18304.6,15317,1,0,0,0,0.125,0.375,0
106,26447.2,27166,1,0,0,0,0.1875,0.375,0
107,33473.2,40171,1,0,0,0,0.25,0.375,0
108,39143.3,40749,1,0,0,0,0.3125,0.375,0
109,43292.5,42772,1,0,0,0,0.375,0.375,0
110,45818,46529,1,0,0,0,0.4375,0.375,0
111,46665.4,45951,1,0,0,0,0.5,0.375,0
112,45818,41327,1,0,0,0,0.5625,0.375,0
113,43292.5,41038,1,0,0,0,0.625,0.375,0
114,39143.3,35258,1,0,0,0,0.6875,0.375,0
115,33473.2,31212,1,0,0,0,0.75,0.375,0
116,26447.2,31212,1,0,0,0,0.8125,0.375,0
117,18304.6,19363,1,0,0,0,0.875,0.375,0
118,9361.76,10115,1,0,0,0,0.9375,0.375,0
119,0,0,1,0,0,0,1,0.375,0
120,0,0,1,0,0,0,0,0.4375,0
121,11890.3,17340,1,0,0,0,0.0625,0.4375,0
122,23214,21964,1,0,0,0,0.125,0.4375,0
123,33467.6,31212,1,0,0,0,0.1875,0.4375,0
124,42253.3,46240,1,0,0,0,0.25,0.4375,0
125,49291.5,49997,1,0,0,0,0.3125,0.4375,0
126,54408,47107,1,0,0,0,0.375,0.4375,0
127,57507,61846,1,0,0,0,0.4375,0.4375,0
128,58544.2,56933,1,0,0,0,0.5,0.4375,0
129,57507,59534,1,0,0,0,0.5625,0.4375,0
130,54408,53754,1,0,0,0,0.625,0.4375,0
131,49291.5,51442,1,0,0,0,0.6875,0.4375,0
132,42253.3,41616,1,0,0,0,0.75,0.4375,0
133,33467.6,32946,1,0,0,0,0.8125,0.4375,0
134,23214,26877,1,0,0,0,0.875,0.4375,0
135,11890.3,13294,1,0,0,0,0.9375,0.4375,0
136,0,0,1,0,0,0,1,0.4375,0
137,0,0,1,0,0,0,0,0.5,0
138,14999.3,15606,1,0,0,0,0.0625,0.5,0
139,29216.5,31790,1,0,0,0,0.125,0.5,0
140,41981.3,43639,1,0,0,0,0.1875,0.5,0
141,52802.9,55199,1,0,0,0,0.25,0.5,0
142,61377.5,58667,1,0,0,0,0.3125,0.5,0
143,67550.89999999999,65603,1,0,0,0,0.375,0.5,0
144,71263.8,68493,1,0,0,0,0.4375,0.5,0
145,72501.8,77452,1,0,0,0,0.5,0.5,0
146,71263.8,67915,1,0,0,0,0.5625,0.5,0
147,67550.89999999999,68204,1,0,0,0,0.625,0.5,0
148,61377.5,58378,1,0,0,0,0.6875,0.5,0
149,52802.9,54332,1,0,0,0,0.75,0.5,0
150,41981.3,37570,1,0,0,0,0.8125,0.5,0
151,29216.5,30345,1,0,0,0,0.875,0.5,0
152,14999.3,16184,1,0,0,0,0.9375,0.5,0
153,0,0,1,0,0,0,1,0.5,0
154,0,0,1,0,0,0,0,0.5625,0
155,18915.2,20519,1,0,0,0,0.0625,0.5625,0
156,36710.7,35258,1,0,0,0,0.125,0.5625,0
157,52478.3,54621,1,0,0,0,0.1875,0.5625,0
158,65630.39999999999,65025,1,0,0,0,0.25,0.5625,0
159,75883.39999999999,71094,1,0,0,0,0.3125,0.5625,0
160,83163,77741,1,0,0,0,0.375,0.5625,0
161,87497.3,82654,1,0,0,0,0.4375,0.5625,0
162,88935,93058,1,0,0,0,0.5,0.5625,0
163,87497.3,95370,1,0,0,0,0.5625,0.5625,0
164,83163,84388,1,0,0,0,0.625,0.5625,0
165,75883.39999999999,75140,1,0,0,0,0.6875,0.5625,0
166,65630.39999999999,58378,1,0,0,0,0.75,0.5625,0
167,52478.3,51731,1,0,0,0,0.8125,0.5625,0
168,36710.7,28033,1,0,0,0,0.875,0.5625,0
169,18915.2,14161,1,0,0,0,0.9375,0.5625,0
170,0,0,1,0,0,0,1,0.5625,0
171,0,0,1,0,0,0,0,0.625,0
172,23998.9,28611,1,0,0,0,0.0625,0.625,0
173,46304.1,42194,1,0,0,0,0.125,0.625,0
174,65655.60000000001,63869,1,0,0,0,0.1875,0.625,0
175,81400.10000000001,81209,1,0,0,0,0.25,0.625,0
176,93382.5,96526,1,0,0,0,0.3125,0.625,0
177,101723,110687,1,0,0,0,0.375,0.625,0
178,106621,110109,1,0,0,0,0.4375,0.625,0
179,108234,112132,1,0,0,0,0.5,0.625,0
180,106621,106930,1,0,0,0,0.5625,0.625,0
181,101723,94503,1,0,0,0,0.625,0.625,0
182,93382.5,89301,1,0,0,0,0.6875,0.625,0
183,81400.10000000001,75140,1,0,0,0,0.75,0.625,0
184,65655.60000000001,71961,1,0,0,0,0.8125,0.625,0
185,46304.1,49419,1,0,0,0,0.875,0.625,0
186,23998.9,20230,1,0,0,0,0.9375,0.625,0
187,0,0,1,0,0,0,1,0.625,0
188,0,0,1,0,0,0,0,0.6875,0
189,30878.6,31212,1,0,0,0,0.0625,0.6875,0
190,58987.7,55199,1,0,0,0,0.125,0.6875,0
191,82545.89999999999,82365,1,0,0,0,0.1875,0.6875,0
192,100986,103751,1,0,0,0,0.25,0.6875,0
193,114536,115311,1,0,0,0,0.3125,0.6875,0
194,123714,120513,1,0,0,0,0.375,0.6875,0
195,129006,141032,1,0,0,0,0.4375,0.6875,0
196,130734,126004,1,0,0,0,0.5,0.6875,0
197,129006,114155,1,0,0,0,0.5625,0.6875,0
198,123714,112999,1,0,0,0,0.625,0.6875,0
199,114536,115889,1,0,0,0,0.6875,0.6875,0
200,100986,102884,1,0,0,0,0.75,0.6875,0
201,82545.89999999999,82365,1,0,0,0,0.8125,0.6875,0
202,58987.7,59534,1,0,0,0,0.875,0.6875,0
203,30878.6,30345,1,0,0,0,0.9375,0.6875,0
204,0,0,1,0,0,0,1,0.6875,0
205,0,0,1,0,0,0,0,0.75,0
206,40771.7,37859,1,0,0,0,0.0625,0.75,0
207,76499.3,73695,1,0,0,0,0.125,0.75,0
208,104716,99416,1,0,0,0,0.1875,0.75,0
209,125508,134674,1,0,0,0,0.25,0.75,0
210,140049,148835,1,0,0,0,0.3125,0.75,0
211,149554,154326,1,0,0,0,0.375,0.75,0
212,154913,155771,1,0,0,0,0.4375,0.75,0
213,156644,162996,1,0,0,0,0.5,0.75,0
214,154913,152014,1,0,0,0,0.5625,0.75,0
215,149554,143344,1,0,0,0,0.625,0.75,0
216,140049,143922,1,0,0,0,0.6875,0.75,0
217,125508,132073,1,0,0,0,0.75,0.75,0
218,104716,103173,1,0,0,0,0.8125,0.75,0
219,76499.3,70227,1,0,0,0,0.875,0.75,0
220,40771.7,40749,1,0,0,0,0.9375,0.75,0
221,0,0,1,0,0,0,1,0.75,0
222,0,0,1,0,0,0,0,0.8125,0
223,56395.5,53754,1,0,0,0,0.0625,0.8125,0
224,102098,104618,1,0,0,0,0.125,0.8125,0
225,134497,139876,1,0,0,0,0.1875,0.8125,0
226,156258,149991,1,0,0,0,0.25,0.8125,0
227,170521,170799,1,0,0,0,0.3125,0.8125,0
228,179461,179469,1,0,0,0,0.375,0.8125,0
229,184378,178602,1,0,0,0,0.4375,0.8125,0
230,185948,178602,1,0,0,0,0.5,0.8125,0
231,184378,185827,1,0,0,0,0.5625,0.8125,0
232,179461,184960,1,0,0,0,0.625,0.8125,0
233,170521,159239,1,0,0,0,0.6875,0.8125,0
234,156258,148546,1,0,0,0,0.75,0.8125,0
235,134497,134963,1,0,0,0,0.8125,0.8125,0
236,102098,109531,1,0,0,0,0.875,0.8125,0
237,56395.5,59534,1,0,0,0,0.9375,0.8125,0
238,0,0,1,0,0,0,1,0.8125,0
239,0,0,1,0,0,0,0,0.875,0
240,85136.5,89301,1,0,0,0,0.0625,0.875,0
241,142017,152014,1,0,0,0,0.125,0.875,0
242,174809,182648,1,0,0,0,0.1875,0.875,0
243,194271,193341,1,0,0,0,0.25,0.875,0
244,206139,202300,1,0,0,0,0.3125,0.875,0
245,213270,208080,1,0,0,0,0.375,0.875,0
246,217100,217039,1,0,0,0,0.4375,0.875,0
247,218310,231489,1,0,0,0,0.5,0.875,0
248,217100,219351,1,0,0,0,0.5625,0.875,0
249,213270,216172,1,0,0,0,0.625,0.875,0
250,206139,187561,1,0,0,0,0.6875,0.875,0
251,194271,203456,1,0,0,0,0.75,0.875,0
252,174809,168487,1,0,0,0,0.8125,0.875,0
253,142017,130628,1,0,0,0,0.875,0.875,0
254,85136.5,80342,1,0,0,0,0.9375,0.875,0
255,0,0,1,0,0,0,1,0.875,0
256,0,0,1,0,0,0,0,0.9375,0
257,153722,156638,1,0,0,0,0.0625,0.9375,0
258,204678,210392,1,0,0,0,0.125,0.9375,0
259,227372,228888,1,0,0,0,0.1875,0.9375,0
260,239352,247384,1,0,0,0,0.25,0.9375,0
261,246234,230911,1,0,0,0,0.3125,0.9375,0
262,250239,253742,1,0,0,0,0.375,0.9375,0
263,252353,266458,1,0,0,0,0.4375,0.9375,0
264,253016,259811,1,0,0,0,0.5,0.9375,0
265,252353,246228,1,0,0,0,0.5625,0.9375,0
266,250239,243627,1,0,0,0,0.625,0.9375,0
267,246234,240448,1,0,0,0,0.6875,0.9375,0
268,239352,239003,1,0,0,0,0.75,0.9375,0
269,227372,237269,1,0,0,0,0.8125,0.9375,0
270,204678,202011,1,0,0,0,0.875,0.9375,0
271,153722,155482,1,0,0,0,0.9375,0.9375,0
272,0,0,1,0,0,0,1,0.9375,0
273,289000,289000,1,0,0,0,0,1,0
274,289000,289000,1,0,0,0,0.0625,1,0
275,289000,289000,1,0,0,0,0.125,1,0
276,289000,289000,1,0,0,0,0.1875,1,0
277,289000,289000,1,0,0,0,0.25,1,0
278,289000,289000,1,0,0,0,0.3125,1,0
279,289000,289000,1,0,0,0,0.375,1,0
280,289000,289000,1,0,0,0,0.4375,1,0
281,289000,289000,1,0,0,0,0.5,1,0
282,289000,289000,1,0,0,0,0.5625,1,0
283,289000,289000,1,0,0,0,0.625,1,0
284,289000,289000,1,0,0,0,0.6875,1,0
285,289000,289000,1,0,0,0,0.75,1,0
286,289000,289000,1,0,0,0,0.8125,1,0
287,289000,289000,1,0,0,0,0.875,1,0
288,289000,289000,1,0,0,0,0.9375,1,0
289,289000,289000,1,0,0,0,1,1,0
