"id","C_[0]","Cd_[0]","type","v:0","v:1","v:2","Points:0","Points:1","Points:2"
1,0,0,1,0,0,0,0,0,0
2,0,0,1,0,0,0,0.0625,0,0
3,0,0,1,0,0,0,0.125,0,0
4,0,0,1,0,0,0,0.1875,0,0
5,0,0,1,0,0,0,0.25,0,0
6,0,0,1,0,0,0,0.3125,0,0
7,0,0,1,0,0,0,0.375,0,0
8,0,0,1,0,0,0,0.4375,0,0
9,0,0,1,0,0,0,0.5,0,0
10,0,0,1,0,0,0,0.5625,0,0
11,0,0,1,0,0,0,0.625,0,0
12,0,0,1,0,0,0,0.6875,0,0
13,0,0,1,0,0,0,0.75,0,0
14,0,0,1,0,0,0,0.8125,0,0
15,0,0,1,0,0,0,0.875,0,0
16,0,0,1,0,0,0,0.9375,0,0
17,0,0,1,0,0,0,1,0,0
18,0,0,1,0,0,0,0,0.0625,0
19,1238.91,1156,1,0,0,0,0.0625,0.0625,0
20,2428.17,2890,1,0,0,0,0.125,0.0625,0
21,3520.73,2601,1,0,0,0,0.1875,0.0625,0
22,4474.42,3179,1,0,0,0,0.25,0.0625,0
23,5253.59,5780,1,0,0,0,0.3125,0.0625,0
24,5830.18,4046,1,0,0,0,0.375,0.0625,0
25,6184.12,3468,1,0,0,0,0.4375,0.0625,0
26,6303.43,8092,1,0,0,0,0.5,0.0625,0
27,6184.12,6936,1,0,0,0,0.5625,0.0625,0
28,5830.18,4335,1,0,0,0,0.625,0.0625,0
29,5253.59,4913,1,0,0,0,0.6875,0.0625,0
30,4474.42,6647,1,0,0,0,0.75,0.0625,0
31,3520.73,2312,1,0,0,0,0.8125,0.0625,0
32,2428.17,2023,1,0,0,0,0.875,0.0625,0
33,1238.91,867,1,0,0,0,0.9375,0.0625,0
34,0,0,1,0,0,0,1,0.0625,0
35,0,0,1,0,0,0,0,0.125,0
36,2528.02,1734,1,0,0,0,0.0625,0.125,0
37,4954.06,5202,1,0,0,0,0.125,0.125,0
38,7181.72,8959,1,0,0,0,0.1875,0.125,0
39,9124.93,10693,1,0,0,0,0.25,0.125,0
40,10711.4,10404,1,0,0,0,0.3125,0.125,0
41,11884.7,13294,1,0,0,0,0.375,0.125,0
42,12604.5,13294,1,0,0,0,0.4375,0.125,0
43,12847.1,12427,1,0,0,0,0.5,0.125,0
44,12604.5,10404,1,0,0,0,0.5625,0.125,0
45,11884.7,8381,1,0,0,0,0.625,0.125,0
46,10711.4,10982,1,0,0,0,0.6875,0.125,0
47,9124.93,6936,1,0,0,0,0.75,0.125,0
48,7181.72,5780,1,0,0,0,0.8125,0.125,0
49,4954.06,4624,1,0,0,0,0.875,0.125,0
50,2528.02,2312,1,0,0,0,0.9375,0.125,0
51,0,0,1,0,0,0,1,0.125,0
52,0,0,1,0,0,0,0,0.1875,0
53,3920.29,3757,1,0,0,0,0.0625,0.1875,0
54,7680.52,5491,1,0,0,0,0.125,0.1875,0
55,11130,15606,1,0,0,0,0.1875,0.1875,0
56,14135.4,15895,1,0,0,0,0.25,0.1875,0
57,16586,15895,1,0,0,0,0.3125,0.1875,0
58,18396,17340,1,0,0,0,0.375,0.1875,0
59,19505.5,22831,1,0,0,0,0.4375,0.1875,0
60,19879.2,16473,1,0,0,0,0.5,0.1875,0
61,19505.5,17629,1,0,0,0,0.5625,0.1875,0
62,18396,17340,1,0,0,0,0.625,0.1875,0
63,16586,14739,1,0,0,0,0.6875,0.1875,0
64,14135.4,14450,1,0,0,0,0.75,0.1875,0
65,11130,13294,1,0,0,0,0.8125,0.1875,0
66,7680.52,6936,1,0,0,0,0.875,0.1875,0
67,3920.29,4335,1,0,0,0,0.9375,0.1875,0
68,0,0,1,0,0,0,1,0.1875,0
69,0,0,1,0,0,0,0,0.25,0
70,5474.61,6936,1,0,0,0,0.0625,0.25,0
71,10721.4,8959,1,0,0,0,0.125,0.25,0
72,15527.2,18496,1,0,0,0,0.1875,0.25,0
73,19706.1,19652,1,0,0,0,0.25,0.25,0
74,23106.3,23120,1,0,0,0,0.3125,0.25,0
75,25612.9,27166,1,0,0,0,0.375,0.25,0
76,27147.1,23987,1,0,0,0,0.4375,0.25,0
77,27663.5,27166,1,0,0,0,0.5,0.25,0
78,27147.1,20808,1,0,0,0,0.5625,0.25,0
79,25612.9,28033,1,0,0,0,0.625,0.25,0
80,23106.3,19941,1,0,0,0,0.6875,0.25,0
81,19706.1,17918,1,0,0,0,0.75,0.25,0
82,15527.2,17629,1,0,0,0,0.8125,0.25,0
83,10721.4,11271,1,0,0,0,0.875,0.25,0
84,5474.61,8092,1,0,0,0,0.9375,0.25,0
85,0,0,1,0,0,0,1,0.25,0
86,0,0,1,0,0,0,0,0.3125,0
87,7259.95,7225,1,0,0,0,0.0625,0.3125,0
88,14208.8,13294,1,0,0,0,0.125,0.3125,0
89,20558.7,16184,1,0,0,0,0.1875,0.3125,0
90,26063.4,29478,1,0,0,0,0.25,0.3125,0
91,30527.6,27166,1,0,0,0,0.3125,0.3125,0
92,33809,32946,1,0,0,0,0.375,0.3125,0
93,35812.9,38437,1,0,0,0,0.4375,0.3125,0
94,36486.6,32946,1,0,0,0,0.5,0.3125,0
95,35812.9,35258,1,0,0,0,0.5625,0.3125,0
96,33809,33235,1,0,0,0,0.625,0.3125,0
97,30527.6,32079,1,0,0,0,0.6875,0.3125,0
98,26063.4,27166,1,0,0,0,0.75,0.3125,0
99,20558.7,21097,1,0,0,0,0.8125,0.3125,0
100,14208.8,15895,1,0,0,0,0.875,0.3125,0
101,7259.95,7803,1,0,0,0,0.9375,0.3125,0
102,0,0,1,0,0,0,1,0.3125,0
103,0,0,1,0,0,0,0,0.375,0
104,9361.440000000001,9826,1,0,0,0,0.0625,0.375,0
105,18304,21097,1,0,0,0,0.125,0.375,0
106,26446.2,30056,1,0,0,0,0.1875,0.375,0
107,33472,30345,1,0,0,0,0.25,0.375,0
108,39141.9,46818,1,0,0,0,0.3125,0.375,0
109,43291,41905,1,0,0,0,0.375,0.375,0
110,45816.4,46240,1,0,0,0,0.4375,0.375,0
111,46663.8,47396,1,0,0,0,0.5,0.375,0
112,45816.4,41905,1,0,0,0,0.5625,0.375,0
113,43291,49130,1,0,0,0,0.625,0.375,0
114,39141.9,40749,1,0,0,0,0.6875,0.375,0
115,33472,32368,1,0,0,0,0.75,0.375,0
116,26446.2,24854,1,0,0,0,0.8125,0.375,0
117,18304,18207,1,0,0,0,0.875,0.375,0
118,9361.440000000001,8381,1,0,0,0,0.9375,0.375,0
119,0,0,1,0,0,0,1,0.375,0
120,0,0,1,0,0,0,0,0.4375,0
121,11890,15895,1,0,0,0,0.0625,0.4375,0
122,23213.4,22831,1,0,0,0,0.125,0.4375,0
123,33466.7,36125,1,0,0,0,0.1875,0.4375,0
124,42252.1,42194,1,0,0,0,0.25,0.4375,0
125,49290,41905,1,0,0,0,0.3125,0.4375,0
126,54406.3,62713,1,0,0,0,0.375,0.4375,0
127,57505.3,60112,1,0,0,0,0.4375,0.4375,0
128,58542.4,63291,1,0,0,0,0.5,0.4375,0
129,57505.3,53754,1,0,0,0,0.5625,0.4375,0
130,54406.3,51731,1,0,0,0,0.625,0.4375,0
131,49290,50575,1,0,0,0,0.6875,0.4375,0
132,42252.1,45951,1,0,0,0,0.75,0.4375,0
133,33466.7,31212,1,0,0,0,0.8125,0.4375,0
134,23213.4,22542,1,0,0,0,0.875,0.4375,0
135,11890,9248,1,0,0,0,0.9375,0.4375,0
136,0,0,1,0,0,0,1,0.4375,0
137,0,0,1,0,0,0,0,0.5,0
138,14998.9,15606,1,0,0,0,0.0625,0.5,0
139,29215.8,28900,1,0,0,0,0.125,0.5,0
140,41980.3,34391,1,0,0,0,0.1875,0.5,0
141,52801.6,54621,1,0,0,0,0.25,0.5,0
142,61376,60979,1,0,0,0,0.3125,0.5,0
143,67549.3,60401,1,0,0,0,0.375,0.5,0
144,71262,74851,1,0,0,0,0.4375,0.5,0
145,72500,69071,1,0,0,0,0.5,0.5,0
146,71262,77163,1,0,0,0,0.5625,0.5,0
147,67549.3,63002,1,0,0,0,0.625,0.5,0
148,61376,65314,1,0,0,0,0.6875,0.5,0
149,52801.6,52020,1,0,0,0,0.75,0.5,0
150,41980.3,41327,1,0,0,0,0.8125,0.5,0
151,29215.8,28900,1,0,0,0,0.875,0.5,0
152,14998.9,17340,1,0,0,0,0.9375,0.5,0
153,0,0,1,0,0,0,1,0.5,0
154,0,0,1,0,0,0,0,0.5625,0
155,18914.9,19363,1,0,0,0,0.0625,0.5625,0
156,36710,39015,1,0,0,0,0.125,0.5625,0
157,52477.3,51442,1,0,0,0,0.1875,0.5625,0
158,65629.2,60690,1,0,0,0,0.25,0.5625,0
159,75882,73406,1,0,0,0,0.3125,0.5625,0
160,83161.3,79475,1,0,0,0,0.375,0.5625,0
161,87495.5,95659,1,0,0,0,0.4375,0.5625,0
162,88933.2,86411,1,0,0,0,0.5,0.5625,0
163,87495.5,89012,1,0,0,0,0.5625,0.5625,0
164,83161.3,87567,1,0,0,0,0.625,0.5625,0
165,75882,74273,1,0,0,0,0.6875,0.5625,0
166,65629.2,64736,1,0,0,0,0.75,0.5625,0
167,52477.3,56355,1,0,0,0,0.8125,0.5625,0
168,36710,41616,1,0,0,0,0.875,0.5625,0
169,18914.9,15606,1,0,0,0,0.9375,0.5625,0
170,0,0,1,0,0,0,1,0.5625,0
171,0,0,1,0,0,0,0,0.625,0
172,23998.6,25721,1,0,0,0,0.0625,0.625,0
173,46303.4,47685,1,0,0,0,0.125,0.625,0
174,65654.7,64447,1,0,0,0,0.1875,0.625,0
175,81398.89999999999,71383,1,0,0,0,0.25,0.625,0
176,93381.10000000001,100283,1,0,0,0,0.3125,0.625,0
177,101721,99416,1,0,0,0,0.375,0.625,0
178,106619,107797,1,0,0,0,0.4375,0.625,0
179,108232,100861,1,0,0,0,0.5,0.625,0
180,106619,105196,1,0,0,0,0.5625,0.625,0
181,101721,106352,1,0,0,0,0.625,0.625,0
182,93381.10000000001,91902,1,0,0,0,0.6875,0.625,0
183,81398.89999999999,81787,1,0,0,0,0.75,0.625,0
184,65654.7,63580,1,0,0,0,0.8125,0.625,0
185,46303.4,44506,1,0,0,0,0.875,0.625,0
186,23998.6,23987,1,0,0,0,0.9375,0.625,0
187,0,0,1,0,0,0,1,0.625,0
188,0,0,1,0,0,0,0,0.6875,0
189,30878.3,29767,1,0,0,0,0.0625,0.6875,0
190,58987.1,61846,1,0,0,0,0.125,0.6875,0
191,82545,81209,1,0,0,0,0.1875,0.6875,0
192,100985,99127,1,0,0,0,0.25,0.6875,0
193,114535,114733,1,0,0,0,0.3125,0.6875,0
194,123713,118490,1,0,0,0,0.375,0.6875,0
195,129005,132651,1,0,0,0,0.4375,0.6875,0
196,130732,135541,1,0,0,0,0.5,0.6875,0
197,129005,122536,1,0,0,0,0.5625,0.6875,0
198,123713,121091,1,0,0,0,0.625,0.6875,0
199,114535,120802,1,0,0,0,0.6875,0.6875,0
200,100985,113866,1,0,0,0,0.75,0.6875,0
201,82545,88723,1,0,0,0,0.8125,0.6875,0
202,58987.1,63869,1,0,0,0,0.875,0.6875,0
203,30878.3,32079,1,0,0,0,0.9375,0.6875,0
204,0,0,1,0,0,0,1,0.6875,0
205,0,0,1,0,0,0,0,0.75,0
206,40771.4,44506,1,0,0,0,0.0625,0.75,0
207,76498.89999999999,74273,1,0,0,0,0.125,0.75,0
208,104716,105774,1,0,0,0,0.1875,0.75,0
209,125507,121091,1,0,0,0,0.25,0.75,0
210,140048,142188,1,0,0,0,0.3125,0.75,0
211,149553,147390,1,0,0,0,0.375,0.75,0
212,154912,137564,1,0,0,0,0.4375,0.75,0
213,156642,162707,1,0,0,0,0.5,0.75,0
214,154912,147679,1,0,0,0,0.5625,0.75,0
215,149553,139587,1,0,0,0,0.625,0.75,0
216,140048,148257,1,0,0,0,0.6875,0.75,0
217,125507,119935,1,0,0,0,0.75,0.75,0
218,104716,108086,1,0,0,0,0.8125,0.75,0
219,76498.89999999999,84677,1,0,0,0,0.875,0.75,0
220,40771.4,50864,1,0,0,0,0.9375,0.75,0
221,0,0,1,0,0,0,1,0.75,0
222,0,0,1,0,0,0,0,0.8125,0
223,56395.3,64158,1,0,0,0,0.0625,0.8125,0
224,102098,97971,1,0,0,0,0.125,0.8125,0
225,134496,139298,1,0,0,0,0.1875,0.8125,0
226,156257,157505,1,0,0,0,0.25,0.8125,0
227,170520,168776,1,0,0,0,0.3125,0.8125,0
228,179460,183515,1,0,0,0,0.375,0.8125,0
229,184377,184960,1,0,0,0,0.4375,0.8125,0
230,185947,166175,1,0,0,0,0.5,0.8125,0
231,184377,178024,1,0,0,0,0.5625,0.8125,0
232,179460,184382,1,0,0,0,0.625,0.8125,0
233,170520,158372,1,0,0,0,0.6875,0.8125,0
234,156257,149124,1,0,0,0,0.75,0.8125,0
235,134496,144789,1,0,0,0,0.8125,0.8125,0
236,102098,98549,1,0,0,0,0.875,0.8125,0
237,56395.3,48552,1,0,0,0,0.9375,0.8125,0
238,0,0,1,0,0,0,1,0.8125,0
239,0,0,1,0,0,0,0,0.875,0
240,85136.39999999999,84677,1,0,0,0,0.0625,0.875,0
241,142016,138720,1,0,0,0,0.125,0.875,0
242,174809,171377,1,0,0,0,0.1875,0.875,0
243,194271,196520,1,0,0,0,0.25,0.875,0
244,206138,212126,1,0,0,0,0.3125,0.875,0
245,213269,211837,1,0,0,0,0.375,0.875,0
246,217100,212126,1,0,0,0,0.4375,0.875,0
247,218309,212993,1,0,0,0,0.5,0.875,0
248,217100,225131,1,0,0,0,0.5625,0.875,0
249,213269,229755,1,0,0,0,0.625,0.875,0
250,206138,191318,1,0,0,0,0.6875,0.875,0
251,194271,189584,1,0,0,0,0.75,0.875,0
252,174809,183515,1,0,0,0,0.8125,0.875,0
253,142016,140165,1,0,0,0,0.875,0.875,0
254,85136.39999999999,77741,1,0,0,0,0.9375,0.875,0
255,0,0,1,0,0,0,1,0.875,0
256,0,0,1,0,0,0,0,0.9375,0
257,153722,159528,1,0,0,0,0.0625,0.9375,0
258,204678,198832,1,0,0,0,0.125,0.9375,0
259,227371,233223,1,0,0,0,0.1875,0.9375,0
260,239351,254031,1,0,0,0,0.25,0.9375,0
261,246234,259522,1,0,0,0,0.3125,0.9375,0
262,250238,241315,1,0,0,0,0.375,0.9375,0
263,252353,254898,1,0,0,0,0.4375,0.9375,0
264,253015,243916,1,0,0,0,0.5,0.9375,0
265,252353,258944,1,0,0,0,0.5625,0.9375,0
266,250238,266458,1,0,0,0,0.625,0.9375,0
267,246234,237269,1,0,0,0,0.6875,0.9375,0
268,239351,246517,1,0,0,0,0.75,0.9375,0
269,227371,228888,1,0,0,0,0.8125,0.9375,0
270,204678,210392,1,0,0,0,0.875,0.9375,0
271,153722,142477,1,0,0,0,0.9375,0.9375,0
272,0,0,1,0,0,0,1,0.9375,0
273,289000,289000,1,0,0,0,0,1,0
274,289000,289000,1,0,0,0,0.0625,1,0
275,289000,289000,1,0,0,0,0.125,1,0
276,289000,289000,1,0,0,0,0.1875,1,0
277,289000,289000,1,0,0,0,0.25,1,0
278,289000,289000,1,0,0,0,0.3125,1,0
279,289000,289000,1,0,0,0,0.375,1,0
280,289000,289000,1,0,0,0,0.4375,1,0
281,289000,289000,1,0,0,0,0.5,1,0
282,289000,289000,1,0,0,0,0.5625,1,0
283,289000,289000,1,0,0,0,0.625,1,0
284,289000,289000,1,0,0,0,0.6875,1,0
285,289000,289000,1,0,0,0,0.75,1,0
286,289000,289000,1,0,0,0,0.8125,1,0
287,289000,289000,1,0,0,0,0.875,1,0
288,289000,289000,1,0,0,0,0.9375,1,0
289,289000,289000,1,0,0,0,1,1,0
