"id","C_[0]","Cd_[0]","type","v:0","v:1","v:2","Points:0","Points:1","Points:2"
1,0,0,1,0,0,0,0,0,0
2,0,0,1,0,0,0,0.0625,0,0
3,0,0,1,0,0,0,0.125,0,0
4,0,0,1,0,0,0,0.1875,0,0
5,0,0,1,0,0,0,0.25,0,0
6,0,0,1,0,0,0,0.3125,0,0
7,0,0,1,0,0,0,0.375,0,0
8,0,0,1,0,0,0,0.4375,0,0
9,0,0,1,0,0,0,0.5,0,0
10,0,0,1,0,0,0,0.5625,0,0
11,0,0,1,0,0,0,0.625,0,0
12,0,0,1,0,0,0,0.6875,0,0
13,0,0,1,0,0,0,0.75,0,0
14,0,0,1,0,0,0,0.8125,0,0
15,0,0,1,0,0,0,0.875,0,0
16,0,0,1,0,0,0,0.9375,0,0
17,0,0,1,0,0,0,1,0,0
18,0,0,1,0,0,0,0,0.0625,0
19,0.210342,0,1,0,0,0,0.0625,0.0625,0
20,0.402549,0,1,0,0,0,0.125,0.0625,0
21,0.563064,0,1,0,0,0,0.1875,0.0625,0
22,0.685553,0,1,0,0,0,0.25,0.0625,0
23,0.770766,0,1,0,0,0,0.3125,0.0625,0
24,0.82415,0,1,0,0,0,0.375,0.0625,0
25,0.852569,0,1,0,0,0,0.4375,0.0625,0
26,0.861378,0,1,0,0,0,0.5,0.0625,0
27,0.852569,0,1,0,0,0,0.5625,0.0625,0
28,0.82415,0,1,0,0,0,0.625,0.0625,0
29,0.770766,0,1,0,0,0,0.6875,0.0625,0
30,0.685553,0,1,0,0,0,0.75,0.0625,0
31,0.563064,0,1,0,0,0,0.8125,0.0625,0
32,0.402549,0,1,0,0,0,0.875,0.0625,0
33,0.210342,0,1,0,0,0,0.9375,0.0625,0
34,0,0,1,0,0,0,1,0.0625,0
35,0,0,1,0,0,0,0,0.125,0
36,0.857887,0,1,0,0,0,0.0625,0.125,0
37,1.63936,0,1,0,0,0,0.125,0.125,0
38,2.28799,0,1,0,0,0,0.1875,0.125,0
39,2.77857,0,1,0,0,0,0.25,0.125,0
40,3.11608,0,1,0,0,0,0.3125,0.125,0
41,3.32496,0,1,0,0,0,0.375,0.125,0
42,3.43491,0,1,0,0,0,0.4375,0.125,0
43,3.46875,0,1,0,0,0,0.5,0.125,0
44,3.43491,0,1,0,0,0,0.5625,0.125,0
45,3.32496,0,1,0,0,0,0.625,0.125,0
46,3.11608,0,1,0,0,0,0.6875,0.125,0
47,2.77857,0,1,0,0,0,0.75,0.125,0
48,2.28799,0,1,0,0,0,0.8125,0.125,0
49,1.63936,0,1,0,0,0,0.875,0.125,0
50,0.857887,0,1,0,0,0,0.9375,0.125,0
51,0,0,1,0,0,0,1,0.125,0
52,0,0,1,0,0,0,0,0.1875,0
53,3.13158,0,1,0,0,0,0.0625,0.1875,0
54,5.97342,0,1,0,0,0,0.125,0.1875,0
55,8.314629999999999,0,1,0,0,0,0.1875,0.1875,0
56,10.0664,0,1,0,0,0,0.25,0.1875,0
57,11.2554,0,1,0,0,0,0.3125,0.1875,0
58,11.9804,0,1,0,0,0,0.375,0.1875,0
59,12.3568,0,1,0,0,0,0.4375,0.1875,0
60,12.4717,0,1,0,0,0,0.5,0.1875,0
61,12.3568,0,1,0,0,0,0.5625,0.1875,0
62,11.9804,0,1,0,0,0,0.625,0.1875,0
63,11.2554,0,1,0,0,0,0.6875,0.1875,0
64,10.0664,0,1,0,0,0,0.75,0.1875,0
65,8.314629999999999,0,1,0,0,0,0.8125,0.1875,0
66,5.97342,0,1,0,0,0,0.875,0.1875,0
67,3.13158,0,1,0,0,0,0.9375,0.1875,0
68,0,0,1,0,0,0,1,0.1875,0
69,0,0,1,0,0,0,0,0.25,0
70,10.7249,0,1,0,0,0,0.0625,0.25,0
71,20.4155,0,1,0,0,0,0.125,0.25,0
72,28.3319,0,1,0,0,0,0.1875,0.25,0
73,34.1834,0,1,0,0,0,0.25,0.25,0
74,38.0953,0,1,0,0,0,0.3125,0.25,0
75,40.4407,0,1,0,0,0,0.375,0.25,0
76,41.6397,0,1,0,0,0,0.4375,0.25,0
77,42.002,0,1,0,0,0,0.5,0.25,0
78,41.6397,0,1,0,0,0,0.5625,0.25,0
79,40.4407,0,1,0,0,0,0.625,0.25,0
80,38.0953,0,1,0,0,0,0.6875,0.25,0
81,34.1834,0,1,0,0,0,0.75,0.25,0
82,28.3319,0,1,0,0,0,0.8125,0.25,0
83,20.4155,0,1,0,0,0,0.875,0.25,0
84,10.7249,0,1,0,0,0,0.9375,0.25,0
85,0,0,1,0,0,0,1,0.25,0
86,0,0,1,0,0,0,0,0.3125,0
87,34.4794,0,1,0,0,0,0.0625,0.3125,0
88,65.4804,289,1,0,0,0,0.125,0.3125,0
89,90.5625,0,1,0,0,0,0.1875,0.3125,0
90,108.847,289,1,0,0,0,0.25,0.3125,0
91,120.863,0,1,0,0,0,0.3125,0.3125,0
92,127.933,0,1,0,0,0,0.375,0.3125,0
93,131.484,0,1,0,0,0,0.4375,0.3125,0
94,132.545,0,1,0,0,0,0.5,0.3125,0
95,131.484,289,1,0,0,0,0.5625,0.3125,0
96,127.933,289,1,0,0,0,0.625,0.3125,0
97,120.863,289,1,0,0,0,0.6875,0.3125,0
98,108.847,0,1,0,0,0,0.75,0.3125,0
99,90.5625,0,1,0,0,0,0.8125,0.3125,0
100,65.4804,0,1,0,0,0,0.875,0.3125,0
101,34.4794,0,1,0,0,0,0.9375,0.3125,0
102,0,0,1,0,0,0,1,0.3125,0
103,0,0,1,0,0,0,0,0.375,0
104,103.853,0,1,0,0,0,0.0625,0.375,0
105,196.691,0,1,0,0,0,0.125,0.375,0
106,270.966,289,1,0,0,0,0.1875,0.375,0
107,324.255,578,1,0,0,0,0.25,0.375,0
108,358.593,578,1,0,0,0,0.3125,0.375,0
109,378.366,578,1,0,0,0,0.375,0.375,0
110,388.103,578,1,0,0,0,0.4375,0.375,0
111,390.975,0,1,0,0,0,0.5,0.375,0
112,388.103,1156,1,0,0,0,0.5625,0.375,0
113,378.366,578,1,0,0,0,0.625,0.375,0
114,358.593,289,1,0,0,0,0.6875,0.375,0
115,324.255,0,1,0,0,0,0.75,0.375,0
116,270.966,289,1,0,0,0,0.8125,0.375,0
117,196.691,289,1,0,0,0,0.875,0.375,0
118,103.853,0,1,0,0,0,0.9375,0.375,0
119,0,0,1,0,0,0,1,0.375,0
120,0,0,1,0,0,0,0,0.4375,0
121,292.505,289,1,0,0,0,0.0625,0.4375,0
122,552.171,289,1,0,0,0,0.125,0.4375,0
123,757.151,867,1,0,0,0,0.1875,0.4375,0
124,901.4690000000001,1156,1,0,0,0,0.25,0.4375,0
125,992.364,2023,1,0,0,0,0.3125,0.4375,0
126,1043.43,578,1,0,0,0,0.375,0.4375,0
127,1068.01,1734,1,0,0,0,0.4375,0.4375,0
128,1075.16,578,1,0,0,0,0.5,0.4375,0
129,1068.01,867,1,0,0,0,0.5625,0.4375,0
130,1043.43,578,1,0,0,0,0.625,0.4375,0
131,992.364,1156,1,0,0,0,0.6875,0.4375,0
132,901.4690000000001,289,1,0,0,0,0.75,0.4375,0
133,757.151,289,1,0,0,0,0.8125,0.4375,0
134,552.171,867,1,0,0,0,0.875,0.4375,0
135,292.505,0,1,0,0,0,0.9375,0.4375,0
136,0,0,1,0,0,0,1,0.4375,0
137,0,0,1,0,0,0,0,0.5,0
138,769.1420000000001,578,1,0,0,0,0.0625,0.5,0
139,1446.01,1734,1,0,0,0,0.125,0.5,0
140,1971.55,1734,1,0,0,0,0.1875,0.5,0
141,2333.2,2890,1,0,0,0,0.25,0.5,0
142,2554.88,2312,1,0,0,0,0.3125,0.5,0
143,2675.91,2890,1,0,0,0,0.375,0.5,0
144,2732.67,2890,1,0,0,0,0.4375,0.5,0
145,2748.9,1734,1,0,0,0,0.5,0.5,0
146,2732.67,2601,1,0,0,0,0.5625,0.5,0
147,2675.91,2023,1,0,0,0,0.625,0.5,0
148,2554.88,1445,1,0,0,0,0.6875,0.5,0
149,2333.2,3757,1,0,0,0,0.75,0.5,0
150,1971.55,3468,1,0,0,0,0.8125,0.5,0
151,1446.01,1445,1,0,0,0,0.875,0.5,0
152,769.1420000000001,867,1,0,0,0,0.9375,0.5,0
153,0,0,1,0,0,0,1,0.5,0
154,0,0,1,0,0,0,0,0.5625,0
155,1886.45,578,1,0,0,0,0.0625,0.5625,0
156,3527.68,4335,1,0,0,0,0.125,0.5625,0
157,4775.01,3757,1,0,0,0,0.1875,0.5625,0
158,5609.06,6358,1,0,0,0,0.25,0.5625,0
159,6103.75,6069,1,0,0,0,0.3125,0.5625,0
160,6364.88,5202,1,0,0,0,0.375,0.5625,0
161,6483.74,4335,1,0,0,0,0.4375,0.5625,0
162,6517.12,7514,1,0,0,0,0.5,0.5625,0
163,6483.74,7225,1,0,0,0,0.5625,0.5625,0
164,6364.88,7514,1,0,0,0,0.625,0.5625,0
165,6103.75,5780,1,0,0,0,0.6875,0.5625,0
166,5609.06,6647,1,0,0,0,0.75,0.5625,0
167,4775.01,6647,1,0,0,0,0.8125,0.5625,0
168,3527.68,4046,1,0,0,0,0.875,0.5625,0
169,1886.45,3757,1,0,0,0,0.9375,0.5625,0
170,0,0,1,0,0,0,1,0.5625,0
171,0,0,1,0,0,0,0,0.625,0
172,4317.2,3468,1,0,0,0,0.0625,0.625,0
173,8013.44,7803,1,0,0,0,0.125,0.625,0
174,10741.8,11849,1,0,0,0,0.1875,0.625,0
175,12498.9,10982,1,0,0,0,0.25,0.625,0
176,13499.3,10115,1,0,0,0,0.3125,0.625,0
177,14006.7,12716,1,0,0,0,0.375,0.625,0
178,14230,15028,1,0,0,0,0.4375,0.625,0
179,14291.4,13872,1,0,0,0,0.5,0.625,0
180,14230,12427,1,0,0,0,0.5625,0.625,0
181,14006.7,16184,1,0,0,0,0.625,0.625,0
182,13499.3,17340,1,0,0,0,0.6875,0.625,0
183,12498.9,10982,1,0,0,0,0.75,0.625,0
184,10741.8,10982,1,0,0,0,0.8125,0.625,0
185,8013.44,6069,1,0,0,0,0.875,0.625,0
186,4317.2,3468,1,0,0,0,0.9375,0.625,0
187,0,0,1,0,0,0,1,0.625,0
188,0,0,1,0,0,0,0,0.6875,0
189,9243.940000000001,11560,1,0,0,0,0.0625,0.6875,0
190,16967.4,16762,1,0,0,0,0.125,0.6875,0
191,22430.9,23987,1,0,0,0,0.1875,0.6875,0
192,25773.2,27744,1,0,0,0,0.25,0.6875,0
193,27579.9,29189,1,0,0,0,0.3125,0.6875,0
194,28454.4,31790,1,0,0,0,0.375,0.6875,0
195,28824.9,28611,1,0,0,0,0.4375,0.6875,0
196,28924.5,31501,1,0,0,0,0.5,0.6875,0
197,28824.9,32946,1,0,0,0,0.5625,0.6875,0
198,28454.4,29189,1,0,0,0,0.625,0.6875,0
199,27579.9,28322,1,0,0,0,0.6875,0.6875,0
200,25773.2,28900,1,0,0,0,0.75,0.6875,0
201,22430.9,19941,1,0,0,0,0.8125,0.6875,0
202,16967.4,16762,1,0,0,0,0.875,0.6875,0
203,9243.940000000001,11271,1,0,0,0,0.9375,0.6875,0
204,0,0,1,0,0,0,1,0.6875,0
205,0,0,1,0,0,0,0,0.75,0
206,18652.9,22253,1,0,0,0,0.0625,0.75,0
207,33606.1,35836,1,0,0,0,0.125,0.75,0
208,43495,40460,1,0,0,0,0.1875,0.75,0
209,49117.3,52598,1,0,0,0,0.25,0.75,0
210,51963.7,52598,1,0,0,0,0.3125,0.75,0
211,53269.7,50575,1,0,0,0,0.375,0.75,0
212,53801.3,55488,1,0,0,0,0.4375,0.75,0
213,53940.9,61846,1,0,0,0,0.5,0.75,0
214,53801.3,49130,1,0,0,0,0.5625,0.75,0
215,53269.7,51153,1,0,0,0,0.625,0.75,0
216,51963.7,52887,1,0,0,0,0.6875,0.75,0
217,49117.3,47107,1,0,0,0,0.75,0.75,0
218,43495,40749,1,0,0,0,0.8125,0.75,0
219,33606.1,33813,1,0,0,0,0.875,0.75,0
220,18652.9,17629,1,0,0,0,0.9375,0.75,0
221,0,0,1,0,0,0,1,0.75,0
222,0,0,1,0,0,0,0,0.8125,0
223,36060.2,36125,1,0,0,0,0.0625,0.8125,0
224,62717.5,68204,1,0,0,0,0.125,0.8125,0
225,78401.8,79764,1,0,0,0,0.1875,0.8125,0
226,86426.8,86989,1,0,0,0,0.25,0.8125,0
227,90183.8,94503,1,0,0,0,0.3125,0.8125,0
228,91813.10000000001,89879,1,0,0,0,0.375,0.8125,0
229,92450.60000000001,95659,1,0,0,0,0.4375,0.8125,0
230,92614.39999999999,89301,1,0,0,0,0.5,0.8125,0
231,92450.60000000001,103462,1,0,0,0,0.5625,0.8125,0
232,91813.10000000001,94214,1,0,0,0,0.625,0.8125,0
233,90183.8,94503,1,0,0,0,0.6875,0.8125,0
234,86426.8,93636,1,0,0,0,0.75,0.8125,0
235,78401.8,67337,1,0,0,0,0.8125,0.8125,0
236,62717.5,60690,1,0,0,0,0.875,0.8125,0
237,36060.2,34680,1,0,0,0,0.9375,0.8125,0
238,0,0,1,0,0,0,1,0.8125,0
239,0,0,1,0,0,0,0,0.875,0
240,69341.39999999999,72250,1,0,0,0,0.0625,0.875,0
241,111460,119068,1,0,0,0,0.125,0.875,0
242,131352,138431,1,0,0,0,0.1875,0.875,0
243,140269,135252,1,0,0,0,0.25,0.875,0
244,144121,143055,1,0,0,0,0.3125,0.875,0
245,145707,153748,1,0,0,0,0.375,0.875,0
246,146307,138720,1,0,0,0,0.4375,0.875,0
247,146459,149124,1,0,0,0,0.5,0.875,0
248,146307,156349,1,0,0,0,0.5625,0.875,0
249,145707,136119,1,0,0,0,0.625,0.875,0
250,144121,149702,1,0,0,0,0.6875,0.875,0
251,140269,140743,1,0,0,0,0.75,0.875,0
252,131352,121958,1,0,0,0,0.8125,0.875,0
253,111460,105485,1,0,0,0,0.875,0.875,0
254,69341.39999999999,70516,1,0,0,0,0.9375,0.875,0
255,0,0,1,0,0,0,1,0.875,0
256,0,0,1,0,0,0,0,0.9375,0
257,145039,150280,1,0,0,0,0.0625,0.9375,0
258,187892,184093,1,0,0,0,0.125,0.9375,0
259,203522,202300,1,0,0,0,0.1875,0.9375,0
260,209749,221374,1,0,0,0,0.25,0.9375,0
261,212275,228021,1,0,0,0,0.3125,0.9375,0
262,213277,223975,1,0,0,0,0.375,0.9375,0
263,213647,214438,1,0,0,0,0.4375,0.9375,0
264,213740,198832,1,0,0,0,0.5,0.9375,0
265,213647,210681,1,0,0,0,0.5625,0.9375,0
266,213277,210392,1,0,0,0,0.625,0.9375,0
267,212275,209236,1,0,0,0,0.6875,0.9375,0
268,209749,218773,1,0,0,0,0.75,0.9375,0
269,203522,207791,1,0,0,0,0.8125,0.9375,0
270,187892,182937,1,0,0,0,0.875,0.9375,0
271,145039,134096,1,0,0,0,0.9375,0.9375,0
272,0,0,1,0,0,0,1,0.9375,0
273,289000,289000,1,0,0,0,0,1,0
274,289000,289000,1,0,0,0,0.0625,1,0
275,289000,289000,1,0,0,0,0.125,1,0
276,289000,289000,1,0,0,0,0.1875,1,0
277,289000,289000,1,0,0,0,0.25,1,0
278,289000,289000,1,0,0,0,0.3125,1,0
279,289000,289000,1,0,0,0,0.375,1,0
280,289000,289000,1,0,0,0,0.4375,1,0
281,289000,289000,1,0,0,0,0.5,1,0
282,289000,289000,1,0,0,0,0.5625,1,0
283,289000,289000,1,0,0,0,0.625,1,0
284,289000,289000,1,0,0,0,0.6875,1,0
285,289000,289000,1,0,0,0,0.75,1,0
286,289000,289000,1,0,0,0,0.8125,1,0
287,289000,289000,1,0,0,0,0.875,1,0
288,289000,289000,1,0,0,0,0.9375,1,0
289,289000,289000,1,0,0,0,1,1,0
