"id","C_[0]","Cd_[0]","type","v:0","v:1","v:2","Points:0","Points:1","Points:2"
1,0,0,1,0,0,0,0,0,0
2,0,0,1,0,0,0,0.0625,0,0
3,0,0,1,0,0,0,0.125,0,0
4,0,0,1,0,0,0,0.1875,0,0
5,0,0,1,0,0,0,0.25,0,0
6,0,0,1,0,0,0,0.3125,0,0
7,0,0,1,0,0,0,0.375,0,0
8,0,0,1,0,0,0,0.4375,0,0
9,0,0,1,0,0,0,0.5,0,0
10,0,0,1,0,0,0,0.5625,0,0
11,0,0,1,0,0,0,0.625,0,0
12,0,0,1,0,0,0,0.6875,0,0
13,0,0,1,0,0,0,0.75,0,0
14,0,0,1,0,0,0,0.8125,0,0
15,0,0,1,0,0,0,0.875,0,0
16,0,0,1,0,0,0,0.9375,0,0
17,0,0,1,0,0,0,1,0,0
18,0,0,1,0,0,0,0,0.0625,0
19,1232.1,867,1,0,0,0,0.0625,0.0625,0
20,2414.81,1734,1,0,0,0,0.125,0.0625,0
21,3501.33,4913,1,0,0,0,0.1875,0.0625,0
22,4449.73,4913,1,0,0,0,0.25,0.0625,0
23,5224.56,3179,1,0,0,0,0.3125,0.0625,0
24,5797.92,7225,1,0,0,0,0.375,0.0625,0
25,6149.88,6069,1,0,0,0,0.4375,0.0625,0
26,6268.51,5202,1,0,0,0,0.5,0.0625,0
27,6149.88,4624,1,0,0,0,0.5625,0.0625,0
28,5797.92,4335,1,0,0,0,0.625,0.0625,0
29,5224.56,6069,1,0,0,0,0.6875,0.0625,0
30,4449.73,4624,1,0,0,0,0.75,0.0625,0
31,3501.33,3179,1,0,0,0,0.8125,0.0625,0
32,2414.81,2601,1,0,0,0,0.875,0.0625,0
33,1232.1,2601,1,0,0,0,0.9375,0.0625,0
34,0,0,1,0,0,0,1,0.0625,0
35,0,0,1,0,0,0,0,0.125,0
36,2514.66,2601,1,0,0,0,0.0625,0.125,0
37,4927.85,3179,1,0,0,0,0.125,0.125,0
38,7143.67,8670,1,0,0,0,0.1875,0.125,0
39,9076.5,10693,1,0,0,0,0.25,0.125,0
40,10654.5,10982,1,0,0,0,0.3125,0.125,0
41,11821.4,10404,1,0,0,0,0.375,0.125,0
42,12537.4,14450,1,0,0,0,0.4375,0.125,0
43,12778.6,11849,1,0,0,0,0.5,0.125,0
44,12537.4,14161,1,0,0,0,0.5625,0.125,0
45,11821.4,12716,1,0,0,0,0.625,0.125,0
46,10654.5,13294,1,0,0,0,0.6875,0.125,0
47,9076.5,9826,1,0,0,0,0.75,0.125,0
48,7143.67,4624,1,0,0,0,0.8125,0.125,0
49,4927.85,4046,1,0,0,0,0.875,0.125,0
50,2514.66,2312,1,0,0,0,0.9375,0.125,0
51,0,0,1,0,0,0,1,0.125,0
52,0,0,1,0,0,0,0,0.1875,0
53,3900.89,1734,1,0,0,0,0.0625,0.1875,0
54,7642.47,7225,1,0,0,0,0.125,0.1875,0
55,11074.8,12138,1,0,0,0,0.1875,0.1875,0
56,14065.1,14161,1,0,0,0,0.25,0.1875,0
57,16503.3,16762,1,0,0,0,0.3125,0.1875,0
58,18304.1,15317,1,0,0,0,0.375,0.1875,0
59,19408,17340,1,0,0,0,0.4375,0.1875,0
60,19779.8,21386,1,0,0,0,0.5,0.1875,0
61,19408,19941,1,0,0,0,0.5625,0.1875,0
62,18304.1,18207,1,0,0,0,0.625,0.1875,0
63,16503.3,17918,1,0,0,0,0.6875,0.1875,0
64,14065.1,19074,1,0,0,0,0.75,0.1875,0
65,11074.8,10404,1,0,0,0,0.8125,0.1875,0
66,7642.47,7514,1,0,0,0,0.875,0.1875,0
67,3900.89,2601,1,0,0,0,0.9375,0.1875,0
68,0,0,1,0,0,0,1,0.1875,0
69,0,0,1,0,0,0,0,0.25,0
70,5449.92,4913,1,0,0,0,0.0625,0.25,0
71,10672.9,13872,1,0,0,0,0.125,0.25,0
72,15456.9,14739,1,0,0,0,0.1875,0.25,0
73,19616.7,17629,1,0,0,0,0.25,0.25,0
74,23001.1,21386,1,0,0,0,0.3125,0.25,0
75,25496,23409,1,0,0,0,0.375,0.25,0
76,27023,29189,1,0,0,0,0.4375,0.25,0
77,27537,24854,1,0,0,0,0.5,0.25,0
78,27023,23409,1,0,0,0,0.5625,0.25,0
79,25496,25432,1,0,0,0,0.625,0.25,0
80,23001.1,25143,1,0,0,0,0.6875,0.25,0
81,19616.7,24565,1,0,0,0,0.75,0.25,0
82,15456.9,14739,1,0,0,0,0.8125,0.25,0
83,10672.9,9826,1,0,0,0,0.875,0.25,0
84,5449.92,3757,1,0,0,0,0.9375,0.25,0
85,0,0,1,0,0,0,1,0.25,0
86,0,0,1,0,0,0,0,0.3125,0
87,7230.92,6936,1,0,0,0,0.0625,0.3125,0
88,14151.8,15028,1,0,0,0,0.125,0.3125,0
89,20476,17340,1,0,0,0,0.1875,0.3125,0
90,25958.1,26010,1,0,0,0,0.25,0.3125,0
91,30403.9,33235,1,0,0,0,0.3125,0.3125,0
92,33671.5,32368,1,0,0,0,0.375,0.3125,0
93,35667,35547,1,0,0,0,0.4375,0.3125,0
94,36337.8,39593,1,0,0,0,0.5,0.3125,0
95,35667,32946,1,0,0,0,0.5625,0.3125,0
96,33671.5,30345,1,0,0,0,0.625,0.3125,0
97,30403.9,35547,1,0,0,0,0.6875,0.3125,0
98,25958.1,23409,1,0,0,0,0.75,0.3125,0
99,20476,26588,1,0,0,0,0.8125,0.3125,0
100,14151.8,11560,1,0,0,0,0.875,0.3125,0
101,7230.92,8670,1,0,0,0,0.9375,0.3125,0
102,0,0,1,0,0,0,1,0.3125,0
103,0,0,1,0,0,0,0,0.375,0
104,9329.18,8670,1,0,0,0,0.0625,0.375,0
105,18240.7,17051,1,0,0,0,0.125,0.375,0
106,26354.4,30634,1,0,0,0,0.1875,0.375,0
107,33355.1,34680,1,0,0,0,0.25,0.375,0
108,39004.5,34102,1,0,0,0,0.3125,0.375,0
109,43138.2,46529,1,0,0,0,0.375,0.375,0
110,45654.2,41327,1,0,0,0,0.4375,0.375,0
111,46498.4,42483,1,0,0,0,0.5,0.375,0
112,45654.2,42194,1,0,0,0,0.5625,0.375,0
113,43138.2,46529,1,0,0,0,0.625,0.375,0
114,39004.5,38437,1,0,0,0,0.6875,0.375,0
115,33355.1,34680,1,0,0,0,0.75,0.375,0
116,26354.4,27166,1,0,0,0,0.8125,0.375,0
117,18240.7,17918,1,0,0,0,0.875,0.375,0
118,9329.18,11849,1,0,0,0,0.9375,0.375,0
119,0,0,1,0,0,0,1,0.375,0
120,0,0,1,0,0,0,0,0.4375,0
121,11855.7,7514,1,0,0,0,0.0625,0.4375,0
122,23146.2,23698,1,0,0,0,0.125,0.4375,0
123,33369.1,33813,1,0,0,0,0.1875,0.4375,0
124,42127.9,40460,1,0,0,0,0.25,0.4375,0
125,49144.1,51442,1,0,0,0,0.3125,0.4375,0
126,54244.2,56933,1,0,0,0,0.375,0.4375,0
127,57333.1,67048,1,0,0,0,0.4375,0.4375,0
128,58366.9,51442,1,0,0,0,0.5,0.4375,0
129,57333.1,56355,1,0,0,0,0.5625,0.4375,0
130,54244.2,46240,1,0,0,0,0.625,0.4375,0
131,49144.1,48841,1,0,0,0,0.6875,0.4375,0
132,42127.9,45084,1,0,0,0,0.75,0.4375,0
133,33369.1,33235,1,0,0,0,0.8125,0.4375,0
134,23146.2,20808,1,0,0,0,0.875,0.4375,0
135,11855.7,15317,1,0,0,0,0.9375,0.4375,0
136,0,0,1,0,0,0,1,0.4375,0
137,0,0,1,0,0,0,0,0.5,0
138,14964,13583,1,0,0,0,0.0625,0.5,0
139,29147.3,28322,1,0,0,0,0.125,0.5,0
140,41880.9,40460,1,0,0,0,0.1875,0.5,0
141,52675,54621,1,0,0,0,0.25,0.5,0
142,61227.1,61846,1,0,0,0,0.3125,0.5,0
143,67383.89999999999,70805,1,0,0,0,0.375,0.5,0
144,71086.5,75140,1,0,0,0,0.4375,0.5,0
145,72321,73984,1,0,0,0,0.5,0.5,0
146,71086.5,72539,1,0,0,0,0.5625,0.5,0
147,67383.89999999999,67048,1,0,0,0,0.625,0.5,0
148,61227.1,56644,1,0,0,0,0.6875,0.5,0
149,52675,53754,1,0,0,0,0.75,0.5,0
150,41880.9,40749,1,0,0,0,0.8125,0.5,0
151,29147.3,28033,1,0,0,0,0.875,0.5,0
152,14964,14739,1,0,0,0,0.9375,0.5,0
153,0,0,1,0,0,0,1,0.5,0
154,0,0,1,0,0,0,0,0.5625,0
155,18880.6,21097,1,0,0,0,0.0625,0.5625,0
156,36642.8,43350,1,0,0,0,0.125,0.5625,0
157,52379.8,53176,1,0,0,0,0.1875,0.5625,0
158,65505.1,69071,1,0,0,0,0.25,0.5625,0
159,75736,78030,1,0,0,0,0.3125,0.5625,0
160,82999.10000000001,83232,1,0,0,0,0.375,0.5625,0
161,87323.39999999999,91324,1,0,0,0,0.4375,0.5625,0
162,88757.7,86989,1,0,0,0,0.5,0.5625,0
163,87323.39999999999,77741,1,0,0,0,0.5625,0.5625,0
164,82999.10000000001,86122,1,0,0,0,0.625,0.5625,0
165,75736,77163,1,0,0,0,0.6875,0.5625,0
166,65505.1,68493,1,0,0,0,0.75,0.5625,0
167,52379.8,61557,1,0,0,0,0.8125,0.5625,0
168,36642.8,37570,1,0,0,0,0.875,0.5625,0
169,18880.6,16184,1,0,0,0,0.9375,0.5625,0
170,0,0,1,0,0,0,1,0.5625,0
171,0,0,1,0,0,0,0,0.625,0
172,23966.4,26588,1,0,0,0,0.0625,0.625,0
173,46240.1,54332,1,0,0,0,0.125,0.625,0
174,65562.8,65892,1,0,0,0,0.1875,0.625,0
175,81282,75429,1,0,0,0,0.25,0.625,0
176,93243.60000000001,90746,1,0,0,0,0.3125,0.625,0
177,101568,111265,1,0,0,0,0.375,0.625,0
178,106457,105485,1,0,0,0,0.4375,0.625,0
179,108067,116178,1,0,0,0,0.5,0.625,0
180,106457,108953,1,0,0,0,0.5625,0.625,0
181,101568,104329,1,0,0,0,0.625,0.625,0
182,93243.60000000001,98838,1,0,0,0,0.6875,0.625,0
183,81282,81787,1,0,0,0,0.75,0.625,0
184,65562.8,62713,1,0,0,0,0.8125,0.625,0
185,46240.1,54621,1,0,0,0,0.875,0.625,0
186,23966.4,21097,1,0,0,0,0.9375,0.625,0
187,0,0,1,0,0,0,1,0.625,0
188,0,0,1,0,0,0,0,0.6875,0
189,30849.3,32079,1,0,0,0,0.0625,0.6875,0
190,58930.1,57800,1,0,0,0,0.125,0.6875,0
191,82462.39999999999,86700,1,0,0,0,0.1875,0.6875,0
192,100879,99416,1,0,0,0,0.25,0.6875,0
193,114411,112132,1,0,0,0,0.3125,0.6875,0
194,123575,120224,1,0,0,0,0.375,0.6875,0
195,128859,129183,1,0,0,0,0.4375,0.6875,0
196,130584,122825,1,0,0,0,0.5,0.6875,0
197,128859,119357,1,0,0,0,0.5625,0.6875,0
198,123575,121091,1,0,0,0,0.625,0.6875,0
199,114411,115022,1,0,0,0,0.6875,0.6875,0
200,100879,101439,1,0,0,0,0.75,0.6875,0
201,82462.39999999999,89590,1,0,0,0,0.8125,0.6875,0
202,58930.1,58378,1,0,0,0,0.875,0.6875,0
203,30849.3,33235,1,0,0,0,0.9375,0.6875,0
204,0,0,1,0,0,0,1,0.6875,0
205,0,0,1,0,0,0,0,0.75,0
206,40746.8,36703,1,0,0,0,0.0625,0.75,0
207,76450.39999999999,79764,1,0,0,0,0.125,0.75,0
208,104645,101439,1,0,0,0,0.1875,0.75,0
209,125418,119935,1,0,0,0,0.25,0.75,0
210,139943,141032,1,0,0,0,0.3125,0.75,0
211,149436,149702,1,0,0,0,0.375,0.75,0
212,154788,170221,1,0,0,0,0.4375,0.75,0
213,156516,155771,1,0,0,0,0.5,0.75,0
214,154788,146234,1,0,0,0,0.5625,0.75,0
215,149436,146234,1,0,0,0,0.625,0.75,0
216,139943,143922,1,0,0,0,0.6875,0.75,0
217,125418,123981,1,0,0,0,0.75,0.75,0
218,104645,108664,1,0,0,0,0.8125,0.75,0
219,76450.39999999999,71672,1,0,0,0,0.875,0.75,0
220,40746.8,41038,1,0,0,0,0.9375,0.75,0
221,0,0,1,0,0,0,1,0.75,0
222,0,0,1,0,0,0,0,0.8125,0
223,56375.9,57800,1,0,0,0,0.0625,0.8125,0
224,102060,97971,1,0,0,0,0.125,0.8125,0
225,134441,139587,1,0,0,0,0.1875,0.8125,0
226,156187,159239,1,0,0,0,0.25,0.8125,0
227,170438,170221,1,0,0,0,0.3125,0.8125,0
228,179368,183804,1,0,0,0,0.375,0.8125,0
229,184280,194786,1,0,0,0,0.4375,0.8125,0
230,185847,171088,1,0,0,0,0.5,0.8125,0
231,184280,186116,1,0,0,0,0.5625,0.8125,0
232,179368,167620,1,0,0,0,0.625,0.8125,0
233,170438,176001,1,0,0,0,0.6875,0.8125,0
234,156187,161551,1,0,0,0,0.75,0.8125,0
235,134441,142766,1,0,0,0,0.8125,0.8125,0
236,102060,99416,1,0,0,0,0.875,0.8125,0
237,56375.9,64447,1,0,0,0,0.9375,0.8125,0
238,0,0,1,0,0,0,1,0.8125,0
239,0,0,1,0,0,0,0,0.875,0
240,85123,86411,1,0,0,0,0.0625,0.875,0
241,141990,121091,1,0,0,0,0.125,0.875,0
242,174771,161262,1,0,0,0,0.1875,0.875,0
243,194222,191896,1,0,0,0,0.25,0.875,0
244,206081,203745,1,0,0,0,0.3125,0.875,0
245,213206,206924,1,0,0,0,0.375,0.875,0
246,217032,221374,1,0,0,0,0.4375,0.875,0
247,218241,227154,1,0,0,0,0.5,0.875,0
248,217032,211548,1,0,0,0,0.5625,0.875,0
249,213206,223975,1,0,0,0,0.625,0.875,0
250,206081,212993,1,0,0,0,0.6875,0.875,0
251,194222,201144,1,0,0,0,0.75,0.875,0
252,174771,187850,1,0,0,0,0.8125,0.875,0
253,141990,141032,1,0,0,0,0.875,0.875,0
254,85123,79764,1,0,0,0,0.9375,0.875,0
255,0,0,1,0,0,0,1,0.875,0
256,0,0,1,0,0,0,0,0.9375,0
257,153715,157216,1,0,0,0,0.0625,0.9375,0
258,204664,217039,1,0,0,0,0.125,0.9375,0
259,227352,226287,1,0,0,0,0.1875,0.9375,0
260,239327,245650,1,0,0,0,0.25,0.9375,0
261,246205,242760,1,0,0,0,0.3125,0.9375,0
262,250206,243916,1,0,0,0,0.375,0.9375,0
263,252318,240737,1,0,0,0,0.4375,0.9375,0
264,252981,260678,1,0,0,0,0.5,0.9375,0
265,252318,235535,1,0,0,0,0.5625,0.9375,0
266,250206,245361,1,0,0,0,0.625,0.9375,0
267,246205,243338,1,0,0,0,0.6875,0.9375,0
268,239327,263857,1,0,0,0,0.75,0.9375,0
269,227352,239581,1,0,0,0,0.8125,0.9375,0
270,204664,214149,1,0,0,0,0.875,0.9375,0
271,153715,142188,1,0,0,0,0.9375,0.9375,0
272,0,0,1,0,0,0,1,0.9375,0
273,289000,289000,1,0,0,0,0,1,0
274,289000,289000,1,0,0,0,0.0625,1,0
275,289000,289000,1,0,0,0,0.125,1,0
276,289000,289000,1,0,0,0,0.1875,1,0
277,289000,289000,1,0,0,0,0.25,1,0
278,289000,289000,1,0,0,0,0.3125,1,0
279,289000,289000,1,0,0,0,0.375,1,0
280,289000,289000,1,0,0,0,0.4375,1,0
281,289000,289000,1,0,0,0,0.5,1,0
282,289000,289000,1,0,0,0,0.5625,1,0
283,289000,289000,1,0,0,0,0.625,1,0
284,289000,289000,1,0,0,0,0.6875,1,0
285,289000,289000,1,0,0,0,0.75,1,0
286,289000,289000,1,0,0,0,0.8125,1,0
287,289000,289000,1,0,0,0,0.875,1,0
288,289000,289000,1,0,0,0,0.9375,1,0
289,289000,289000,1,0,0,0,1,1,0
