"id","C_[0]","Cd_[0]","type","v:0","v:1","v:2","Points:0","Points:1","Points:2"
1,0,0,1,0,0,0,0,0,0
2,0,0,1,0,0,0,0.0625,0,0
3,0,0,1,0,0,0,0.125,0,0
4,0,0,1,0,0,0,0.1875,0,0
5,0,0,1,0,0,0,0.25,0,0
6,0,0,1,0,0,0,0.3125,0,0
7,0,0,1,0,0,0,0.375,0,0
8,0,0,1,0,0,0,0.4375,0,0
9,0,0,1,0,0,0,0.5,0,0
10,0,0,1,0,0,0,0.5625,0,0
11,0,0,1,0,0,0,0.625,0,0
12,0,0,1,0,0,0,0.6875,0,0
13,0,0,1,0,0,0,0.75,0,0
14,0,0,1,0,0,0,0.8125,0,0
15,0,0,1,0,0,0,0.875,0,0
16,0,0,1,0,0,0,0.9375,0,0
17,0,0,1,0,0,0,1,0,0
18,0,0,1,0,0,0,0,0.0625,0
19,1238.95,1445,1,0,0,0,0.0625,0.0625,0
20,2428.24,2890,1,0,0,0,0.125,0.0625,0
21,3520.84,2312,1,0,0,0,0.1875,0.0625,0
22,4474.55,2890,1,0,0,0,0.25,0.0625,0
23,5253.75,7514,1,0,0,0,0.3125,0.0625,0
24,5830.36,6358,1,0,0,0,0.375,0.0625,0
25,6184.31,5491,1,0,0,0,0.4375,0.0625,0
26,6303.62,4624,1,0,0,0,0.5,0.0625,0
27,6184.31,6069,1,0,0,0,0.5625,0.0625,0
28,5830.36,4046,1,0,0,0,0.625,0.0625,0
29,5253.75,6358,1,0,0,0,0.6875,0.0625,0
30,4474.55,6358,1,0,0,0,0.75,0.0625,0
31,3520.84,4046,1,0,0,0,0.8125,0.0625,0
32,2428.24,2601,1,0,0,0,0.875,0.0625,0
33,1238.95,1156,1,0,0,0,0.9375,0.0625,0
34,0,0,1,0,0,0,1,0.0625,0
35,0,0,1,0,0,0,0,0.125,0
36,2528.09,3468,1,0,0,0,0.0625,0.125,0
37,4954.2,5202,1,0,0,0,0.125,0.125,0
38,7181.92,5780,1,0,0,0,0.1875,0.125,0
39,9125.190000000001,10982,1,0,0,0,0.25,0.125,0
40,10711.7,12138,1,0,0,0,0.3125,0.125,0
41,11885,13872,1,0,0,0,0.375,0.125,0
42,12604.9,11560,1,0,0,0,0.4375,0.125,0
43,12847.5,13294,1,0,0,0,0.5,0.125,0
44,12604.9,11849,1,0,0,0,0.5625,0.125,0
45,11885,12138,1,0,0,0,0.625,0.125,0
46,10711.7,10982,1,0,0,0,0.6875,0.125,0
47,9125.190000000001,5780,1,0,0,0,0.75,0.125,0
48,7181.92,7225,1,0,0,0,0.8125,0.125,0
49,4954.2,4335,1,0,0,0,0.875,0.125,0
50,2528.09,1445,1,0,0,0,0.9375,0.125,0
51,0,0,1,0,0,0,1,0.125,0
52,0,0,1,0,0,0,0,0.1875,0
53,3920.39,2890,1,0,0,0,0.0625,0.1875,0
54,7680.73,8092,1,0,0,0,0.125,0.1875,0
55,11130.3,10115,1,0,0,0,0.1875,0.1875,0
56,14135.8,13872,1,0,0,0,0.25,0.1875,0
57,16586.4,16762,1,0,0,0,0.3125,0.1875,0
58,18396.5,17918,1,0,0,0,0.375,0.1875,0
59,19506,20808,1,0,0,0,0.4375,0.1875,0
60,19879.7,18207,1,0,0,0,0.5,0.1875,0
61,19506,21675,1,0,0,0,0.5625,0.1875,0
62,18396.5,15895,1,0,0,0,0.625,0.1875,0
63,16586.4,21964,1,0,0,0,0.6875,0.1875,0
64,14135.8,10404,1,0,0,0,0.75,0.1875,0
65,11130.3,12138,1,0,0,0,0.8125,0.1875,0
66,7680.73,6647,1,0,0,0,0.875,0.1875,0
67,3920.39,2890,1,0,0,0,0.9375,0.1875,0
68,0,0,1,0,0,0,1,0.1875,0
69,0,0,1,0,0,0,0,0.25,0
70,5474.74,4335,1,0,0,0,0.0625,0.25,0
71,10721.6,9826,1,0,0,0,0.125,0.25,0
72,15527.6,13583,1,0,0,0,0.1875,0.25,0
73,19706.6,17051,1,0,0,0,0.25,0.25,0
74,23106.9,23409,1,0,0,0,0.3125,0.25,0
75,25613.5,30634,1,0,0,0,0.375,0.25,0
76,27147.8,25432,1,0,0,0,0.4375,0.25,0
77,27664.2,28611,1,0,0,0,0.5,0.25,0
78,27147.8,29767,1,0,0,0,0.5625,0.25,0
79,25613.5,23409,1,0,0,0,0.625,0.25,0
80,23106.9,20519,1,0,0,0,0.6875,0.25,0
81,19706.6,20519,1,0,0,0,0.75,0.25,0
82,15527.6,14739,1,0,0,0,0.8125,0.25,0
83,10721.6,9826,1,0,0,0,0.875,0.25,0
84,5474.74,4624,1,0,0,0,0.9375,0.25,0
85,0,0,1,0,0,0,1,0.25,0
86,0,0,1,0,0,0,0,0.3125,0
87,7260.11,7803,1,0,0,0,0.0625,0.3125,0
88,14209.1,11271,1,0,0,0,0.125,0.3125,0
89,20559.1,17051,1,0,0,0,0.1875,0.3125,0
90,26063.9,26588,1,0,0,0,0.25,0.3125,0
91,30528.3,25432,1,0,0,0,0.3125,0.3125,0
92,33809.7,37859,1,0,0,0,0.375,0.3125,0
93,35813.7,34102,1,0,0,0,0.4375,0.3125,0
94,36487.4,40460,1,0,0,0,0.5,0.3125,0
95,35813.7,38726,1,0,0,0,0.5625,0.3125,0
96,33809.7,36125,1,0,0,0,0.625,0.3125,0
97,30528.3,30345,1,0,0,0,0.6875,0.3125,0
98,26063.9,25432,1,0,0,0,0.75,0.3125,0
99,20559.1,21964,1,0,0,0,0.8125,0.3125,0
100,14209.1,13005,1,0,0,0,0.875,0.3125,0
101,7260.11,7803,1,0,0,0,0.9375,0.3125,0
102,0,0,1,0,0,0,1,0.3125,0
103,0,0,1,0,0,0,0,0.375,0
104,9361.610000000001,7225,1,0,0,0,0.0625,0.375,0
105,18304.3,19941,1,0,0,0,0.125,0.375,0
106,26446.7,27455,1,0,0,0,0.1875,0.375,0
107,33472.6,31212,1,0,0,0,0.25,0.375,0
108,39142.7,44795,1,0,0,0,0.3125,0.375,0
109,43291.8,37859,1,0,0,0,0.375,0.375,0
110,45817.2,45084,1,0,0,0,0.4375,0.375,0
111,46664.7,41038,1,0,0,0,0.5,0.375,0
112,45817.2,49997,1,0,0,0,0.5625,0.375,0
113,43291.8,39304,1,0,0,0,0.625,0.375,0
114,39142.7,39304,1,0,0,0,0.6875,0.375,0
115,33472.6,36414,1,0,0,0,0.75,0.375,0
116,26446.7,27166,1,0,0,0,0.8125,0.375,0
117,18304.3,17629,1,0,0,0,0.875,0.375,0
118,9361.610000000001,8670,1,0,0,0,0.9375,0.375,0
119,0,0,1,0,0,0,1,0.375,0
120,0,0,1,0,0,0,0,0.4375,0
121,11890.2,16473,1,0,0,0,0.0625,0.4375,0
122,23213.7,24854,1,0,0,0,0.125,0.4375,0
123,33467.2,34969,1,0,0,0,0.1875,0.4375,0
124,42252.7,41616,1,0,0,0,0.25,0.4375,0
125,49290.8,48263,1,0,0,0,0.3125,0.4375,0
126,54407.2,49419,1,0,0,0,0.375,0.4375,0
127,57506.2,56644,1,0,0,0,0.4375,0.4375,0
128,58543.4,66759,1,0,0,0,0.5,0.4375,0
129,57506.2,53176,1,0,0,0,0.5625,0.4375,0
130,54407.2,59245,1,0,0,0,0.625,0.4375,0
131,49290.8,48841,1,0,0,0,0.6875,0.4375,0
132,42252.7,38437,1,0,0,0,0.75,0.4375,0
133,33467.2,36414,1,0,0,0,0.8125,0.4375,0
134,23213.7,25143,1,0,0,0,0.875,0.4375,0
135,11890.2,9826,1,0,0,0,0.9375,0.4375,0
136,0,0,1,0,0,0,1,0.4375,0
137,0,0,1,0,0,0,0,0.5,0
138,14999.1,12716,1,0,0,0,0.0625,0.5,0
139,29216.2,24565,1,0,0,0,0.125,0.5,0
140,41980.8,42483,1,0,0,0,0.1875,0.5,0
141,52802.3,50286,1,0,0,0,0.25,0.5,0
142,61376.8,63869,1,0,0,0,0.3125,0.5,0
143,67550.2,65603,1,0,0,0,0.375,0.5,0
144,71263,66759,1,0,0,0,0.4375,0.5,0
145,72501,74273,1,0,0,0,0.5,0.5,0
146,71263,71094,1,0,0,0,0.5625,0.5,0
147,67550.2,56933,1,0,0,0,0.625,0.5,0
148,61376.8,65603,1,0,0,0,0.6875,0.5,0
149,52802.3,56644,1,0,0,0,0.75,0.5,0
150,41980.8,47396,1,0,0,0,0.8125,0.5,0
151,29216.2,26299,1,0,0,0,0.875,0.5,0
152,14999.1,11849,1,0,0,0,0.9375,0.5,0
153,0,0,1,0,0,0,1,0.5,0
154,0,0,1,0,0,0,0,0.5625,0
155,18915,23409,1,0,0,0,0.0625,0.5625,0
156,36710.4,32946,1,0,0,0,0.125,0.5625,0
157,52477.8,48552,1,0,0,0,0.1875,0.5625,0
158,65629.89999999999,62424,1,0,0,0,0.25,0.5625,0
159,75882.8,85833,1,0,0,0,0.3125,0.5625,0
160,83162.2,78319,1,0,0,0,0.375,0.5625,0
161,87496.5,92769,1,0,0,0,0.4375,0.5625,0
162,88934.2,88723,1,0,0,0,0.5,0.5625,0
163,87496.5,87856,1,0,0,0,0.5625,0.5625,0
164,83162.2,89590,1,0,0,0,0.625,0.5625,0
165,75882.8,80920,1,0,0,0,0.6875,0.5625,0
166,65629.89999999999,68493,1,0,0,0,0.75,0.5625,0
167,52477.8,52309,1,0,0,0,0.8125,0.5625,0
168,36710.4,33813,1,0,0,0,0.875,0.5625,0
169,18915,16762,1,0,0,0,0.9375,0.5625,0
170,0,0,1,0,0,0,1,0.5625,0
171,0,0,1,0,0,0,0,0.625,0
172,23998.8,30056,1,0,0,0,0.0625,0.625,0
173,46303.8,48263,1,0,0,0,0.125,0.625,0
174,65655.2,67048,1,0,0,0,0.1875,0.625,0
175,81399.60000000001,77452,1,0,0,0,0.25,0.625,0
176,93381.8,95659,1,0,0,0,0.3125,0.625,0
177,101722,108086,1,0,0,0,0.375,0.625,0
178,106620,99994,1,0,0,0,0.4375,0.625,0
179,108233,109531,1,0,0,0,0.5,0.625,0
180,106620,101439,1,0,0,0,0.5625,0.625,0
181,101722,101728,1,0,0,0,0.625,0.625,0
182,93381.8,100572,1,0,0,0,0.6875,0.625,0
183,81399.60000000001,77741,1,0,0,0,0.75,0.625,0
184,65655.2,61268,1,0,0,0,0.8125,0.625,0
185,46303.8,42483,1,0,0,0,0.875,0.625,0
186,23998.8,27455,1,0,0,0,0.9375,0.625,0
187,0,0,1,0,0,0,1,0.625,0
188,0,0,1,0,0,0,0,0.6875,0
189,30878.5,27455,1,0,0,0,0.0625,0.6875,0
190,58987.4,56355,1,0,0,0,0.125,0.6875,0
191,82545.5,83810,1,0,0,0,0.1875,0.6875,0
192,100985,100572,1,0,0,0,0.25,0.6875,0
193,114536,120802,1,0,0,0,0.3125,0.6875,0
194,123713,125715,1,0,0,0,0.375,0.6875,0
195,129006,121669,1,0,0,0,0.4375,0.6875,0
196,130733,137564,1,0,0,0,0.5,0.6875,0
197,129006,121380,1,0,0,0,0.5625,0.6875,0
198,123713,128605,1,0,0,0,0.625,0.6875,0
199,114536,115311,1,0,0,0,0.6875,0.6875,0
200,100985,104040,1,0,0,0,0.75,0.6875,0
201,82545.5,72250,1,0,0,0,0.8125,0.6875,0
202,58987.4,54910,1,0,0,0,0.875,0.6875,0
203,30878.5,35258,1,0,0,0,0.9375,0.6875,0
204,0,0,1,0,0,0,1,0.6875,0
205,0,0,1,0,0,0,0,0.75,0
206,40771.6,43928,1,0,0,0,0.0625,0.75,0
207,76499.10000000001,71094,1,0,0,0,0.125,0.75,0
208,104716,95370,1,0,0,0,0.1875,0.75,0
209,125508,117912,1,0,0,0,0.25,0.75,0
210,140048,137275,1,0,0,0,0.3125,0.75,0
211,149553,154615,1,0,0,0,0.375,0.75,0
212,154913,155193,1,0,0,0,0.4375,0.75,0
213,156643,152881,1,0,0,0,0.5,0.75,0
214,154913,148835,1,0,0,0,0.5625,0.75,0
215,149553,146234,1,0,0,0,0.625,0.75,0
216,140048,139876,1,0,0,0,0.6875,0.75,0
217,125508,125715,1,0,0,0,0.75,0.75,0
218,104716,116178,1,0,0,0,0.8125,0.75,0
219,76499.10000000001,67337,1,0,0,0,0.875,0.75,0
220,40771.6,39304,1,0,0,0,0.9375,0.75,0
221,0,0,1,0,0,0,1,0.75,0
222,0,0,1,0,0,0,0,0.8125,0
223,56395.4,60401,1,0,0,0,0.0625,0.8125,0
224,102098,98549,1,0,0,0,0.125,0.8125,0
225,134497,133229,1,0,0,0,0.1875,0.8125,0
226,156258,156638,1,0,0,0,0.25,0.8125,0
227,170521,172244,1,0,0,0,0.3125,0.8125,0
228,179461,183515,1,0,0,0,0.375,0.8125,0
229,184378,179469,1,0,0,0,0.4375,0.8125,0
230,185947,172533,1,0,0,0,0.5,0.8125,0
231,184378,179180,1,0,0,0,0.5625,0.8125,0
232,179461,183515,1,0,0,0,0.625,0.8125,0
233,170521,179180,1,0,0,0,0.6875,0.8125,0
234,156258,159528,1,0,0,0,0.75,0.8125,0
235,134497,130917,1,0,0,0,0.8125,0.8125,0
236,102098,99994,1,0,0,0,0.875,0.8125,0
237,56395.4,58956,1,0,0,0,0.9375,0.8125,0
238,0,0,1,0,0,0,1,0.8125,0
239,0,0,1,0,0,0,0,0.875,0
240,85136.5,80631,1,0,0,0,0.0625,0.875,0
241,142017,141321,1,0,0,0,0.125,0.875,0
242,174809,164730,1,0,0,0,0.1875,0.875,0
243,194271,192763,1,0,0,0,0.25,0.875,0
244,206139,202878,1,0,0,0,0.3125,0.875,0
245,213269,216461,1,0,0,0,0.375,0.875,0
246,217100,209525,1,0,0,0,0.4375,0.875,0
247,218310,229466,1,0,0,0,0.5,0.875,0
248,217100,229466,1,0,0,0,0.5625,0.875,0
249,213269,203745,1,0,0,0,0.625,0.875,0
250,206139,210681,1,0,0,0,0.6875,0.875,0
251,194271,195942,1,0,0,0,0.75,0.875,0
252,174809,180914,1,0,0,0,0.8125,0.875,0
253,142017,138142,1,0,0,0,0.875,0.875,0
254,85136.5,87278,1,0,0,0,0.9375,0.875,0
255,0,0,1,0,0,0,1,0.875,0
256,0,0,1,0,0,0,0,0.9375,0
257,153722,152014,1,0,0,0,0.0625,0.9375,0
258,204678,190740,1,0,0,0,0.125,0.9375,0
259,227371,216172,1,0,0,0,0.1875,0.9375,0
260,239351,254609,1,0,0,0,0.25,0.9375,0
261,246234,243627,1,0,0,0,0.3125,0.9375,0
262,250238,257788,1,0,0,0,0.375,0.9375,0
263,252353,245072,1,0,0,0,0.4375,0.9375,0
264,253016,248829,1,0,0,0,0.5,0.9375,0
265,252353,250852,1,0,0,0,0.5625,0.9375,0
266,250238,251430,1,0,0,0,0.625,0.9375,0
267,246234,250852,1,0,0,0,0.6875,0.9375,0
268,239351,233512,1,0,0,0,0.75,0.9375,0
269,227371,225131,1,0,0,0,0.8125,0.9375,0
270,204678,209236,1,0,0,0,0.875,0.9375,0
271,153722,150280,1,0,0,0,0.9375,0.9375,0
272,0,0,1,0,0,0,1,0.9375,0
273,289000,289000,1,0,0,0,0,1,0
274,289000,289000,1,0,0,0,0.0625,1,0
275,289000,289000,1,0,0,0,0.125,1,0
276,289000,289000,1,0,0,0,0.1875,1,0
277,289000,289000,1,0,0,0,0.25,1,0
278,289000,289000,1,0,0,0,0.3125,1,0
279,289000,289000,1,0,0,0,0.375,1,0
280,289000,289000,1,0,0,0,0.4375,1,0
281,289000,289000,1,0,0,0,0.5,1,0
282,289000,289000,1,0,0,0,0.5625,1,0
283,289000,289000,1,0,0,0,0.625,1,0
284,289000,289000,1,0,0,0,0.6875,1,0
285,289000,289000,1,0,0,0,0.75,1,0
286,289000,289000,1,0,0,0,0.8125,1,0
287,289000,289000,1,0,0,0,0.875,1,0
288,289000,289000,1,0,0,0,0.9375,1,0
289,289000,289000,1,0,0,0,1,1,0
