"id","C_[0]","Cd_[0]","type","v:0","v:1","v:2","Points:0","Points:1","Points:2"
1,0,0,1,0,0,0,0,0,0
2,0,0,1,0,0,0,0.0625,0,0
3,0,0,1,0,0,0,0.125,0,0
4,0,0,1,0,0,0,0.1875,0,0
5,0,0,1,0,0,0,0.25,0,0
6,0,0,1,0,0,0,0.3125,0,0
7,0,0,1,0,0,0,0.375,0,0
8,0,0,1,0,0,0,0.4375,0,0
9,0,0,1,0,0,0,0.5,0,0
10,0,0,1,0,0,0,0.5625,0,0
11,0,0,1,0,0,0,0.625,0,0
12,0,0,1,0,0,0,0.6875,0,0
13,0,0,1,0,0,0,0.75,0,0
14,0,0,1,0,0,0,0.8125,0,0
15,0,0,1,0,0,0,0.875,0,0
16,0,0,1,0,0,0,0.9375,0,0
17,0,0,1,0,0,0,1,0,0
18,0,0,1,0,0,0,0,0.0625,0
19,1238.96,2601,1,0,0,0,0.0625,0.0625,0
20,2428.26,1156,1,0,0,0,0.125,0.0625,0
21,3520.87,4913,1,0,0,0,0.1875,0.0625,0
22,4474.59,4046,1,0,0,0,0.25,0.0625,0
23,5253.79,6647,1,0,0,0,0.3125,0.0625,0
24,5830.41,5780,1,0,0,0,0.375,0.0625,0
25,6184.36,6069,1,0,0,0,0.4375,0.0625,0
26,6303.67,6069,1,0,0,0,0.5,0.0625,0
27,6184.36,5780,1,0,0,0,0.5625,0.0625,0
28,5830.41,3757,1,0,0,0,0.625,0.0625,0
29,5253.79,6647,1,0,0,0,0.6875,0.0625,0
30,4474.59,2890,1,0,0,0,0.75,0.0625,0
31,3520.87,5202,1,0,0,0,0.8125,0.0625,0
32,2428.26,2312,1,0,0,0,0.875,0.0625,0
33,1238.96,1445,1,0,0,0,0.9375,0.0625,0
34,0,0,1,0,0,0,1,0.0625,0
35,0,0,1,0,0,0,0,0.125,0
36,2528.11,5202,1,0,0,0,0.0625,0.125,0
37,4954.24,2601,1,0,0,0,0.125,0.125,0
38,7181.98,4624,1,0,0,0,0.1875,0.125,0
39,9125.27,5780,1,0,0,0,0.25,0.125,0
40,10711.8,12138,1,0,0,0,0.3125,0.125,0
41,11885.1,10404,1,0,0,0,0.375,0.125,0
42,12605,12716,1,0,0,0,0.4375,0.125,0
43,12847.6,12716,1,0,0,0,0.5,0.125,0
44,12605,10693,1,0,0,0,0.5625,0.125,0
45,11885.1,13294,1,0,0,0,0.625,0.125,0
46,10711.8,11849,1,0,0,0,0.6875,0.125,0
47,9125.27,9248,1,0,0,0,0.75,0.125,0
48,7181.98,5491,1,0,0,0,0.8125,0.125,0
49,4954.24,6647,1,0,0,0,0.875,0.125,0
50,2528.11,3179,1,0,0,0,0.9375,0.125,0
51,0,0,1,0,0,0,1,0.125,0
52,0,0,1,0,0,0,0,0.1875,0
53,3920.42,3468,1,0,0,0,0.0625,0.1875,0
54,7680.79,7514,1,0,0,0,0.125,0.1875,0
55,11130.4,13583,1,0,0,0,0.1875,0.1875,0
56,14135.9,12138,1,0,0,0,0.25,0.1875,0
57,16586.5,20519,1,0,0,0,0.3125,0.1875,0
58,18396.6,20519,1,0,0,0,0.375,0.1875,0
59,19506.2,18785,1,0,0,0,0.4375,0.1875,0
60,19879.9,23120,1,0,0,0,0.5,0.1875,0
61,19506.2,22831,1,0,0,0,0.5625,0.1875,0
62,18396.6,23698,1,0,0,0,0.625,0.1875,0
63,16586.5,18496,1,0,0,0,0.6875,0.1875,0
64,14135.9,11849,1,0,0,0,0.75,0.1875,0
65,11130.4,9537,1,0,0,0,0.8125,0.1875,0
66,7680.79,6936,1,0,0,0,0.875,0.1875,0
67,3920.42,3757,1,0,0,0,0.9375,0.1875,0
68,0,0,1,0,0,0,1,0.1875,0
69,0,0,1,0,0,0,0,0.25,0
70,5474.78,4624,1,0,0,0,0.0625,0.25,0
71,10721.7,11271,1,0,0,0,0.125,0.25,0
72,15527.7,13583,1,0,0,0,0.1875,0.25,0
73,19706.8,15895,1,0,0,0,0.25,0.25,0
74,23107,27455,1,0,0,0,0.3125,0.25,0
75,25613.7,26588,1,0,0,0,0.375,0.25,0
76,27148,26588,1,0,0,0,0.4375,0.25,0
77,27664.4,25143,1,0,0,0,0.5,0.25,0
78,27148,26299,1,0,0,0,0.5625,0.25,0
79,25613.7,23409,1,0,0,0,0.625,0.25,0
80,23107,25721,1,0,0,0,0.6875,0.25,0
81,19706.8,19941,1,0,0,0,0.75,0.25,0
82,15527.7,16473,1,0,0,0,0.8125,0.25,0
83,10721.7,10115,1,0,0,0,0.875,0.25,0
84,5474.78,6069,1,0,0,0,0.9375,0.25,0
85,0,0,1,0,0,0,1,0.25,0
86,0,0,1,0,0,0,0,0.3125,0
87,7260.15,4046,1,0,0,0,0.0625,0.3125,0
88,14209.2,18207,1,0,0,0,0.125,0.3125,0
89,20559.3,20808,1,0,0,0,0.1875,0.3125,0
90,26064.1,23987,1,0,0,0,0.25,0.3125,0
91,30528.5,34969,1,0,0,0,0.3125,0.3125,0
92,33809.9,30345,1,0,0,0,0.375,0.3125,0
93,35814,34969,1,0,0,0,0.4375,0.3125,0
94,36487.6,35258,1,0,0,0,0.5,0.3125,0
95,35814,30634,1,0,0,0,0.5625,0.3125,0
96,33809.9,36414,1,0,0,0,0.625,0.3125,0
97,30528.5,36992,1,0,0,0,0.6875,0.3125,0
98,26064.1,29767,1,0,0,0,0.75,0.3125,0
99,20559.3,18207,1,0,0,0,0.8125,0.3125,0
100,14209.2,16184,1,0,0,0,0.875,0.3125,0
101,7260.15,7514,1,0,0,0,0.9375,0.3125,0
102,0,0,1,0,0,0,1,0.3125,0
103,0,0,1,0,0,0,0,0.375,0
104,9361.66,10115,1,0,0,0,0.0625,0.375,0
105,18304.4,13583,1,0,0,0,0.125,0.375,0
106,26446.9,29767,1,0,0,0,0.1875,0.375,0
107,33472.8,28611,1,0,0,0,0.25,0.375,0
108,39142.9,36992,1,0,0,0,0.3125,0.375,0
109,43292,42772,1,0,0,0,0.375,0.375,0
110,45817.5,46529,1,0,0,0,0.4375,0.375,0
111,46664.9,41038,1,0,0,0,0.5,0.375,0
112,45817.5,54332,1,0,0,0,0.5625,0.375,0
113,43292,43061,1,0,0,0,0.625,0.375,0
114,39142.9,33813,1,0,0,0,0.6875,0.375,0
115,33472.8,37281,1,0,0,0,0.75,0.375,0
116,26446.9,26588,1,0,0,0,0.8125,0.375,0
117,18304.4,14739,1,0,0,0,0.875,0.375,0
118,9361.66,10404,1,0,0,0,0.9375,0.375,0
119,0,0,1,0,0,0,1,0.375,0
120,0,0,1,0,0,0,0,0.4375,0
121,11890.2,12716,1,0,0,0,0.0625,0.4375,0
122,23213.8,25143,1,0,0,0,0.125,0.4375,0
123,33467.3,30056,1,0,0,0,0.1875,0.4375,0
124,42252.9,33524,1,0,0,0,0.25,0.4375,0
125,49291.1,54621,1,0,0,0,0.3125,0.4375,0
126,54407.5,59245,1,0,0,0,0.375,0.4375,0
127,57506.5,56644,1,0,0,0,0.4375,0.4375,0
128,58543.6,55488,1,0,0,0,0.5,0.4375,0
129,57506.5,59823,1,0,0,0,0.5625,0.4375,0
130,54407.5,54910,1,0,0,0,0.625,0.4375,0
131,49291.1,52887,1,0,0,0,0.6875,0.4375,0
132,42252.9,41327,1,0,0,0,0.75,0.4375,0
133,33467.3,32079,1,0,0,0,0.8125,0.4375,0
134,23213.8,24565,1,0,0,0,0.875,0.4375,0
135,11890.2,9826,1,0,0,0,0.9375,0.4375,0
136,0,0,1,0,0,0,1,0.4375,0
137,0,0,1,0,0,0,0,0.5,0
138,14999.2,13294,1,0,0,0,0.0625,0.5,0
139,29216.3,28611,1,0,0,0,0.125,0.5,0
140,41981,42483,1,0,0,0,0.1875,0.5,0
141,52802.5,56355,1,0,0,0,0.25,0.5,0
142,61377,58378,1,0,0,0,0.3125,0.5,0
143,67550.39999999999,69938,1,0,0,0,0.375,0.5,0
144,71263.3,66470,1,0,0,0,0.4375,0.5,0
145,72501.3,71383,1,0,0,0,0.5,0.5,0
146,71263.3,73117,1,0,0,0,0.5625,0.5,0
147,67550.39999999999,59823,1,0,0,0,0.625,0.5,0
148,61377,64158,1,0,0,0,0.6875,0.5,0
149,52802.5,37570,1,0,0,0,0.75,0.5,0
150,41981,39882,1,0,0,0,0.8125,0.5,0
151,29216.3,29189,1,0,0,0,0.875,0.5,0
152,14999.2,15895,1,0,0,0,0.9375,0.5,0
153,0,0,1,0,0,0,1,0.5,0
154,0,0,1,0,0,0,0,0.5625,0
155,18915.1,16473,1,0,0,0,0.0625,0.5625,0
156,36710.5,41905,1,0,0,0,0.125,0.5625,0
157,52478,53754,1,0,0,0,0.1875,0.5625,0
158,65630.10000000001,64736,1,0,0,0,0.25,0.5625,0
159,75883,79475,1,0,0,0,0.3125,0.5625,0
160,83162.5,78030,1,0,0,0,0.375,0.5625,0
161,87496.7,80631,1,0,0,0,0.4375,0.5625,0
162,88934.39999999999,93347,1,0,0,0,0.5,0.5625,0
163,87496.7,82076,1,0,0,0,0.5625,0.5625,0
164,83162.5,84388,1,0,0,0,0.625,0.5625,0
165,75883,82365,1,0,0,0,0.6875,0.5625,0
166,65630.10000000001,73984,1,0,0,0,0.75,0.5625,0
167,52478,50286,1,0,0,0,0.8125,0.5625,0
168,36710.5,39593,1,0,0,0,0.875,0.5625,0
169,18915.1,19652,1,0,0,0,0.9375,0.5625,0
170,0,0,1,0,0,0,1,0.5625,0
171,0,0,1,0,0,0,0,0.625,0
172,23998.8,25432,1,0,0,0,0.0625,0.625,0
173,46303.9,43639,1,0,0,0,0.125,0.625,0
174,65655.39999999999,64447,1,0,0,0,0.1875,0.625,0
175,81399.7,82943,1,0,0,0,0.25,0.625,0
176,93382,91035,1,0,0,0,0.3125,0.625,0
177,101722,94792,1,0,0,0,0.375,0.625,0
178,106620,106063,1,0,0,0,0.4375,0.625,0
179,108233,109820,1,0,0,0,0.5,0.625,0
180,106620,107797,1,0,0,0,0.5625,0.625,0
181,101722,106063,1,0,0,0,0.625,0.625,0
182,93382,90746,1,0,0,0,0.6875,0.625,0
183,81399.7,79764,1,0,0,0,0.75,0.625,0
184,65655.39999999999,60690,1,0,0,0,0.8125,0.625,0
185,46303.9,45373,1,0,0,0,0.875,0.625,0
186,23998.8,26588,1,0,0,0,0.9375,0.625,0
187,0,0,1,0,0,0,1,0.625,0
188,0,0,1,0,0,0,0,0.6875,0
189,30878.5,26877,1,0,0,0,0.0625,0.6875,0
190,58987.5,63002,1,0,0,0,0.125,0.6875,0
191,82545.60000000001,72539,1,0,0,0,0.1875,0.6875,0
192,100985,100572,1,0,0,0,0.25,0.6875,0
193,114536,128027,1,0,0,0,0.3125,0.6875,0
194,123714,125715,1,0,0,0,0.375,0.6875,0
195,129006,135541,1,0,0,0,0.4375,0.6875,0
196,130733,141610,1,0,0,0,0.5,0.6875,0
197,129006,119357,1,0,0,0,0.5625,0.6875,0
198,123714,116467,1,0,0,0,0.625,0.6875,0
199,114536,105485,1,0,0,0,0.6875,0.6875,0
200,100985,108375,1,0,0,0,0.75,0.6875,0
201,82545.60000000001,84966,1,0,0,0,0.8125,0.6875,0
202,58987.5,60401,1,0,0,0,0.875,0.6875,0
203,30878.5,38726,1,0,0,0,0.9375,0.6875,0
204,0,0,1,0,0,0,1,0.6875,0
205,0,0,1,0,0,0,0,0.75,0
206,40771.6,35547,1,0,0,0,0.0625,0.75,0
207,76499.2,76007,1,0,0,0,0.125,0.75,0
208,104716,98549,1,0,0,0,0.1875,0.75,0
209,125508,119935,1,0,0,0,0.25,0.75,0
210,140049,134096,1,0,0,0,0.3125,0.75,0
211,149553,152014,1,0,0,0,0.375,0.75,0
212,154913,153170,1,0,0,0,0.4375,0.75,0
213,156643,159528,1,0,0,0,0.5,0.75,0
214,154913,157505,1,0,0,0,0.5625,0.75,0
215,149553,157505,1,0,0,0,0.625,0.75,0
216,140049,148546,1,0,0,0,0.6875,0.75,0
217,125508,131495,1,0,0,0,0.75,0.75,0
218,104716,102595,1,0,0,0,0.8125,0.75,0
219,76499.2,77741,1,0,0,0,0.875,0.75,0
220,40771.6,38726,1,0,0,0,0.9375,0.75,0
221,0,0,1,0,0,0,1,0.75,0
222,0,0,1,0,0,0,0,0.8125,0
223,56395.4,57800,1,0,0,0,0.0625,0.8125,0
224,102098,101150,1,0,0,0,0.125,0.8125,0
225,134497,128894,1,0,0,0,0.1875,0.8125,0
226,156258,162418,1,0,0,0,0.25,0.8125,0
227,170521,171088,1,0,0,0,0.3125,0.8125,0
228,179461,173111,1,0,0,0,0.375,0.8125,0
229,184378,189295,1,0,0,0,0.4375,0.8125,0
230,185947,191607,1,0,0,0,0.5,0.8125,0
231,184378,177735,1,0,0,0,0.5625,0.8125,0
232,179461,175134,1,0,0,0,0.625,0.8125,0
233,170521,169932,1,0,0,0,0.6875,0.8125,0
234,156258,163285,1,0,0,0,0.75,0.8125,0
235,134497,137853,1,0,0,0,0.8125,0.8125,0
236,102098,101439,1,0,0,0,0.875,0.8125,0
237,56395.4,60401,1,0,0,0,0.9375,0.8125,0
238,0,0,1,0,0,0,1,0.8125,0
239,0,0,1,0,0,0,0,0.875,0
240,85136.5,84099,1,0,0,0,0.0625,0.875,0
241,142017,144211,1,0,0,0,0.125,0.875,0
242,174809,183804,1,0,0,0,0.1875,0.875,0
243,194271,189873,1,0,0,0,0.25,0.875,0
244,206139,203745,1,0,0,0,0.3125,0.875,0
245,213270,203167,1,0,0,0,0.375,0.875,0
246,217100,226287,1,0,0,0,0.4375,0.875,0
247,218310,230622,1,0,0,0,0.5,0.875,0
248,217100,214149,1,0,0,0,0.5625,0.875,0
249,213270,211259,1,0,0,0,0.625,0.875,0
250,206139,204323,1,0,0,0,0.6875,0.875,0
251,194271,184671,1,0,0,0,0.75,0.875,0
252,174809,178313,1,0,0,0,0.8125,0.875,0
253,142017,151147,1,0,0,0,0.875,0.875,0
254,85136.5,84099,1,0,0,0,0.9375,0.875,0
255,0,0,1,0,0,0,1,0.875,0
256,0,0,1,0,0,0,0,0.9375,0
257,153722,152014,1,0,0,0,0.0625,0.9375,0
258,204678,200566,1,0,0,0,0.125,0.9375,0
259,227371,223975,1,0,0,0,0.1875,0.9375,0
260,239351,225131,1,0,0,0,0.25,0.9375,0
261,246234,232934,1,0,0,0,0.3125,0.9375,0
262,250239,239003,1,0,0,0,0.375,0.9375,0
263,252353,254898,1,0,0,0,0.4375,0.9375,0
264,253016,253453,1,0,0,0,0.5,0.9375,0
265,252353,240737,1,0,0,0,0.5625,0.9375,0
266,250239,258366,1,0,0,0,0.625,0.9375,0
267,246234,268770,1,0,0,0,0.6875,0.9375,0
268,239351,242471,1,0,0,0,0.75,0.9375,0
269,227371,232645,1,0,0,0,0.8125,0.9375,0
270,204678,212415,1,0,0,0,0.875,0.9375,0
271,153722,143344,1,0,0,0,0.9375,0.9375,0
272,0,0,1,0,0,0,1,0.9375,0
273,289000,289000,1,0,0,0,0,1,0
274,289000,289000,1,0,0,0,0.0625,1,0
275,289000,289000,1,0,0,0,0.125,1,0
276,289000,289000,1,0,0,0,0.1875,1,0
277,289000,289000,1,0,0,0,0.25,1,0
278,289000,289000,1,0,0,0,0.3125,1,0
279,289000,289000,1,0,0,0,0.375,1,0
280,289000,289000,1,0,0,0,0.4375,1,0
281,289000,289000,1,0,0,0,0.5,1,0
282,289000,289000,1,0,0,0,0.5625,1,0
283,289000,289000,1,0,0,0,0.625,1,0
284,289000,289000,1,0,0,0,0.6875,1,0
285,289000,289000,1,0,0,0,0.75,1,0
286,289000,289000,1,0,0,0,0.8125,1,0
287,289000,289000,1,0,0,0,0.875,1,0
288,289000,289000,1,0,0,0,0.9375,1,0
289,289000,289000,1,0,0,0,1,1,0
